sample_index,timestamp_ms,ppg,ecg,pcg
0,7,22557,28271,208
1,7,22557,28271,208
2,7,22557,28271,208
3,7,22557,28271,208
4,7,22557,28271,208
5,7,22557,28271,208
6,7,22557,28271,208
7,7,22557,28271,208
8,7,22557,28271,208
9,7,22557,28271,208
10,7,22557,28271,208
11,7,22557,28271,208
12,7,22557,28271,208
13,7,22557,28271,208
14,7,22557,28271,208
15,7,22557,28271,208
16,7,22557,28271,208
17,7,22557,28271,208
18,7,22557,28271,208
19,7,22557,28271,208
20,7,22557,28271,208
21,7,22557,28271,208
22,7,22557,28271,208
23,7,22557,28271,208
24,7,22557,28271,208
25,7,22557,28271,208
26,7,22557,28271,208
27,7,22557,28271,208
28,7,22557,28271,208
29,7,22557,28271,208
30,7,22557,28271,208
31,7,22557,28271,208
32,7,22557,28271,208
33,7,22557,28271,208
34,7,22557,28271,208
35,7,22557,28271,208
36,7,22557,28271,208
37,7,22557,28271,208
38,7,22557,28271,208
39,7,22557,28271,208
40,7,22557,28271,208
41,7,22557,28271,208
42,7,22557,28271,208
43,7,22557,28271,208
44,7,22557,28271,208
45,7,22557,28271,208
46,7,22557,28271,208
47,7,22557,28271,208
48,7,22557,28271,208
49,7,22557,28271,208
50,7,22557,28271,208
51,7,22557,28271,208
52,7,22557,28271,208
53,7,22557,28271,208
54,7,22557,28271,208
55,7,22557,28271,208
56,7,22557,28271,208
57,7,22557,28271,208
58,7,22557,28271,208
59,7,22557,28271,208
60,7,22557,28271,208
61,7,22557,28271,208
62,7,22557,28271,208
63,7,22557,28271,208
64,7,22557,28271,208
65,7,22557,28271,208
66,7,22557,28271,208
67,7,22557,28271,208
68,7,22557,28271,208
69,0,0,0,0
70,0,0,0,0
71,0,0,0,896
72,0,22574,28340,1013
73,0,22546,28278,1045
74,0,22572,28337,1043
75,0,22573,28337,1015
76,0,22573,28334,1045
77,0,22575,28338,1280
78,0,22578,28332,1372
79,0,22573,28332,1398
80,0,22579,28330,1360
81,0,22578,28330,1328
82,-15537,22578,28328,1260
83,-15537,22577,28327,1136
84,-15537,22580,28326,1041
85,-15537,22579,28325,971
86,-15537,22582,28327,896
87,-15537,22584,28326,819
88,1336,22585,28324,751
89,1336,22581,28325,705
90,1336,22583,28322,686
91,1336,22581,28325,642
92,1336,22579,28324,628
93,1336,22580,28321,694
94,1336,22578,28329,749
95,1336,22575,28322,743
96,1336,22573,28321,752
97,1336,22571,28319,771
98,1336,22572,28312,803
99,1336,22566,28311,874
100,1336,22570,28310,887
101,-6869,22564,28308,930
102,-6869,22561,28302,990
103,-6869,22559,28297,899
104,-6869,22552,28292,848
105,-6869,22547,28285,785
106,-6869,22547,28277,787
107,-6869,22542,28273,853
108,25520,22537,28266,1373
109,25520,22535,28260,2514
110,25520,22534,28252,1945
111,25520,22525,28250,1210
112,25520,22523,28247,951
113,25520,22520,28242,1017
114,25520,22517,28238,1083
115,25520,22511,28236,1111
116,25520,22507,28229,1183
117,25520,22508,28224,1275
118,25520,22507,28222,1351
119,25520,22503,28218,1369
120,23054,22502,28217,1397
121,23054,22499,28218,1072
122,23054,22500,28215,561
123,23054,22498,28214,147
124,23054,22494,28210,0
125,23054,22491,28205,0
126,23054,22489,28203,0
127,9966,22486,28197,0
128,9966,22479,28190,0
129,9966,22471,28189,0
130,9966,22469,28186,0
131,9966,22467,28181,0
132,9966,22465,28179,0
133,9966,22466,28177,0
134,9966,22460,28176,0
135,9966,22459,28172,0
136,9966,22460,28169,0
137,9966,22454,28162,0
138,9966,22456,28163,0
139,9966,22455,28160,0
140,-6013,22449,28158,0
141,-6013,22451,28157,0
142,-6013,22450,28156,0
143,-6013,22445,28154,0
144,-6013,22446,28155,0
145,-6013,22445,28154,0
146,-19086,22445,28153,0
147,-19086,22444,28154,135
148,-19086,22445,28151,255
149,-19086,22446,28154,374
150,-19086,22441,28156,511
151,-19086,22443,28155,646
152,-19086,22440,28156,841
153,-19086,22445,28155,1291
154,-19086,22441,28156,1614
155,-19086,22439,28155,1799
156,-19086,22436,28151,2011
157,-19086,22440,28151,2198
158,-19086,22436,28151,2349
159,-877,22434,28150,2463
160,-877,22433,28153,2603
161,-877,22430,28149,2736
162,-877,22432,28145,2826
163,-877,22428,28150,2960
164,-877,22428,28149,3088
165,11479,22427,28145,3205
166,11479,22426,28146,3248
167,11479,22427,28148,3377
168,11479,22427,28152,3440
169,11479,22427,28150,3536
170,11479,22425,28152,3651
171,11479,22422,28152,3746
172,11479,22424,28153,3793
173,11479,22422,28154,3819
174,11479,22422,28154,3879
175,11479,22421,28150,3943
176,11479,22423,28148,3952
177,11479,22422,28150,4019
178,576,22420,28146,4055
179,576,22417,28148,4016
180,576,22412,28147,4092
181,576,22412,28145,4095
182,576,22411,28146,4095
183,576,22414,28145,4095
184,-4780,22414,28143,4095
185,-4780,22408,28140,4095
186,-4780,22409,28140,4095
187,-4780,22408,28141,4095
188,-4780,22406,28142,4095
189,-4780,22409,28136,4095
190,-4780,22407,28139,4095
191,-4780,22407,28139,4095
192,-4780,22405,28141,3710
193,-4780,22408,28140,3648
194,-4780,22408,28140,3632
195,-4780,22406,28142,3520
196,-4780,22403,28144,3505
197,-17496,22407,28143,3481
198,-17496,22409,28148,3425
199,-17496,22409,28145,3381
200,-17496,22409,28145,3367
201,-17496,22406,28144,3312
202,-17496,22405,28147,3269
203,-17496,22405,28146,3264
204,-15475,22400,28145,3225
205,-15475,22403,28148,3223
206,-15475,22402,28149,3253
207,-15475,22400,28152,3268
208,-15475,22400,28147,3287
209,-15475,22402,28150,3307
210,-15475,22397,28148,3294
211,-15475,22399,28147,3281
212,-15475,22396,28144,3241
213,-15475,22396,28142,3181
214,-15475,22399,28139,3069
215,-15475,22399,28143,3005
216,-15566,22398,28145,2941
217,-15566,22396,28146,2878
218,-15566,22397,28147,2835
219,-15566,22400,28147,2827
220,-15566,22398,28149,2797
221,-15566,22401,28153,2759
222,-15566,22401,28147,2719
223,-16408,22398,28151,2704
224,-16408,22395,28148,2700
225,-16408,22393,28145,2677
226,-16408,22387,28141,2624
227,-16408,22387,28138,2607
228,-16408,22385,28138,2559
229,-16408,22384,28142,2526
230,-16408,22386,28147,2486
231,-16408,22391,28150,2423
232,-16408,22396,28149,2406
233,-16408,22397,28157,2379
234,-16408,22394,28157,2334
235,-16408,22400,28163,2333
236,-12121,22397,28162,2295
237,-12121,22400,28161,2281
238,-12121,22395,28160,2227
239,-12121,22393,28165,2227
240,-12121,22393,28157,2171
241,-12121,22391,28157,2133
242,23562,22389,28153,2095
243,23562,22383,28148,2068
244,23562,22383,28148,2061
245,23562,22377,28143,2032
246,23562,22381,28143,1983
247,23562,22380,28145,1922
248,23562,22381,28146,1866
249,23562,22381,28146,1826
250,23562,22380,28149,1798
251,23562,22382,28151,1781
252,23562,22382,28152,1803
253,23562,22385,28157,1781
254,23562,22385,28154,1767
255,-3860,22382,28155,1742
256,-3860,22384,28153,1723
257,-3860,22382,28152,1699
258,-3860,22383,28151,1678
259,-3860,22381,28148,1635
260,-3860,22375,28148,1593
261,2489,22373,28144,1535
262,2489,22372,28141,1489
263,2489,22366,28137,1475
264,2489,22366,28135,1271
265,2489,22364,28137,1421
266,2489,22365,28133,1106
267,2489,22366,28136,2038
268,2489,22364,28132,3189
269,2489,22360,28131,2367
270,2489,22361,28134,1411
271,2489,22358,28130,1104
272,2489,22361,28131,1023
273,2489,22361,28134,1074
274,6425,22358,28134,962
275,6425,22359,28129,1002
276,6425,22357,28132,981
277,6425,22359,28133,1008
278,6425,22359,28135,996
279,6425,22361,28139,1047
280,4628,22362,28141,1062
281,4628,22362,28147,1108
282,4628,22362,28145,1146
283,4628,22362,28144,1239
284,4628,22362,28148,1231
285,4628,22361,28148,1342
286,4628,22361,28148,1355
287,4628,22360,28149,1433
288,4628,22366,28151,1417
289,4628,22366,28154,1589
290,4628,22363,28158,1632
291,4628,22367,28158,1744
292,4628,22365,28159,1854
293,138,22364,28155,2086
294,138,22365,28157,2179
295,138,22365,28156,2191
296,138,22364,28155,2170
297,138,22363,28155,2105
298,138,22362,28153,2030
299,138,22357,28153,1994
300,-1740,22358,28150,1931
301,-1740,22353,28152,1872
302,-1740,22353,28152,1803
303,-1740,22354,28150,1744
304,-1740,22358,28155,1664
305,-1740,22357,28158,1564
306,-1740,22355,28161,1475
307,-1740,22355,28158,1394
308,-1740,22354,28159,1284
309,-1740,22359,28161,1230
310,-1740,22355,28160,1137
311,-1740,22354,28163,1055
312,756,22355,28160,978
313,756,22356,28167,971
314,756,22358,28170,960
315,756,22358,28171,1104
316,756,22364,28177,1365
317,756,22366,28181,1527
318,756,22367,28190,1618
319,2540,22370,28195,1665
320,2540,22371,28199,1710
321,2540,22375,28210,1731
322,2540,22373,28210,1731
323,2540,22374,28218,1726
324,2540,22377,28224,1669
325,2540,22383,28227,1614
326,2540,22383,28231,1422
327,2540,22384,28235,1535
328,2540,22388,28232,1520
329,2540,22382,28228,1478
330,2540,22379,28220,1413
331,2540,22373,28213,1362
332,-839,22370,28208,1369
333,-839,22366,28200,1235
334,-839,22366,28201,1104
335,-839,22361,28195,991
336,-839,22365,28193,896
337,-839,22364,28195,790
338,1696,22362,28194,687
339,1696,22361,28193,622
340,1696,22362,28194,544
341,1696,22364,28197,471
342,1696,22363,28198,395
343,1696,22361,28198,378
344,1696,22361,28198,362
345,1696,22366,28200,333
346,1696,22364,28203,410
347,1696,22366,28206,448
348,1696,22366,28203,1263
349,1696,22368,28206,2117
350,1696,22374,28218,1660
351,-9348,22379,28227,1189
352,-9348,22370,28195,1008
353,-9348,22394,28256,1018
354,-9348,22403,28266,953
355,-9348,22415,28283,823
356,-9348,22427,28304,688
357,14548,22436,28323,551
358,14548,22448,28349,450
359,14548,22464,28374,697
360,14548,22477,28405,989
361,14548,22490,28437,1454
362,14548,22509,28462,1520
363,14548,22521,28492,1451
364,14548,22536,28523,1342
365,14548,22544,28553,1213
366,14548,22553,28568,1097
367,14548,22557,28584,947
368,14548,22564,28598,771
369,14548,22567,28607,679
370,-13801,22573,28611,496
371,-13801,22575,28619,399
372,-13801,22576,28626,269
373,-13801,22572,28625,133
374,-13801,22578,28624,0
375,-13801,22582,28626,0
376,-21871,22583,28631,0
377,-21871,22590,28636,0
378,-21871,22600,28649,0
379,-21871,22609,28661,0
380,-21871,22616,28667,0
381,-21871,22620,28676,0
382,-21871,22625,28684,0
383,-21871,22632,28694,0
384,-21871,22636,28702,0
385,-21871,22642,28709,0
386,-21871,22645,28716,0
387,-21871,22650,28722,0
388,-21871,22653,28729,0
389,-2303,22649,28733,0
390,-2303,22649,28731,0
391,-2303,22652,28731,0
392,-2303,22650,28734,0
393,-2303,22651,28737,0
394,-2303,22653,28744,0
395,-2303,22654,28754,0
396,3043,22661,28768,0
397,3043,22668,28779,0
398,3043,22671,28791,0
399,3043,22676,28804,0
400,3043,22681,28807,0
401,3043,22683,28806,0
402,3043,22683,28813,0
403,3043,22686,28813,0
404,3043,22686,28813,0
405,3043,22683,28809,0
406,3043,22680,28812,0
407,3043,22681,28809,0
408,-1389,22684,28813,0
409,-1389,22684,28815,0
410,-1389,22686,28821,0
411,-1389,22686,28828,0
412,-1389,22698,28839,0
413,-1389,22698,28849,0
414,-1389,22704,28863,0
415,-17730,22711,28878,0
416,-17730,22716,28894,0
417,-17730,22721,28906,0
418,-17730,22727,28925,0
419,-17730,22730,28931,0
420,-17730,22734,28935,0
421,-17730,22737,28944,0
422,-17730,22736,28948,0
423,-17730,22735,28954,0
424,-17730,22740,28961,0
425,-17730,22734,28959,0
426,-17730,22731,28958,0
427,-17730,22729,28957,0
428,-4976,22725,28955,0
429,-4976,22722,28953,1332
430,-4976,22719,28947,665
431,-4976,22714,28951,73
432,-4976,22714,28952,71
433,-4976,22713,28954,226
434,-1303,22706,28956,329
435,-1303,22706,28952,449
436,-1303,22704,28957,624
437,-1303,22704,28956,795
438,-1303,22709,28959,953
439,-1303,22713,28963,1093
440,-1303,22714,28960,1185
441,-1303,22720,28958,1407
442,-1303,22722,28961,1774
443,-1303,22721,28957,2098
444,-1303,22714,28952,2358
445,-1303,22719,28949,2553
446,-1303,22713,28939,2767
447,-17689,22714,28936,2963
448,-17689,22710,28930,3169
449,-17689,22708,28930,3407
450,-17689,22703,28921,3683
451,-17689,22698,28906,3887
452,-17689,22691,28895,4067
453,27435,22683,28883,4095
454,27435,22676,28868,4095
455,27435,22674,28859,4095
456,27435,22670,28847,3940
457,27435,22668,28842,3737
458,27435,22669,28842,3632
459,27435,22668,28843,3504
460,27435,22672,28845,3370
461,27435,22670,28851,3280
462,27435,22672,28855,3178
463,27435,22675,28859,3120
464,27435,22678,28863,3036
465,27435,22674,28862,2969
466,-23496,22675,28866,2886
467,-23496,22681,28866,2817
468,-23496,22680,28865,2737
469,-23496,22682,28863,2647
470,-23496,22678,28867,2544
471,-23496,22678,28868,2465
472,13826,22678,28868,2353
473,13826,22676,28866,2288
474,13826,22676,28865,2270
475,13826,22676,28863,2286
476,13826,22673,28864,2279
477,13826,22668,28860,2318
478,13826,22670,28858,2325
479,13826,22667,28851,2311
480,13826,22667,28847,2303
481,13826,22666,28846,2305
482,13826,22660,28839,2326
483,13826,22661,28835,2338
484,13826,22656,28827,2335
485,-27000,22655,28823,2301
486,-27000,22650,28826,2321
487,-27000,22654,28824,2354
488,-27000,22652,28826,2283
489,-27000,22651,28824,2242
490,-27000,22654,28821,2193
491,-27000,22648,28824,2126
492,-29548,22650,28819,2119
493,-29548,22646,28818,2084
494,-29548,22646,28814,2023
495,-29548,22646,28810,1965
496,-29548,22646,28810,1920
497,-29548,22638,28808,1917
498,-29548,22640,28807,1909
499,-29548,22638,28806,1842
500,-29548,22637,28807,1780
501,-29548,22632,28800,1715
502,-29548,22633,28801,1687
503,-29548,22634,28800,1654
504,-19987,22678,28868,1648
505,-19987,22632,28796,1586
506,-19987,22627,28795,1697
507,-19987,22629,28794,1813
508,-19987,22624,28794,2858
509,-19987,22621,28793,2723
510,-19987,22621,28788,1978
511,-1877,22616,28786,1535
512,-1877,22614,28787,1349
513,-1877,22617,28784,1397
514,-1877,22618,28784,1439
515,-1877,22614,28786,1471
516,-1877,22618,28784,1531
517,-1877,22615,28781,1535
518,-1877,22615,28780,1535
519,-1877,22611,28776,1599
520,-1877,22608,28770,1660
521,-1877,22601,28767,1722
522,-1877,22602,28762,1744
523,-1877,22603,28757,1761
524,3892,22596,28752,1757
525,3892,22597,28751,1755
526,3892,22594,28747,1782
527,3892,22592,28744,1785
528,3892,22589,28743,1801
529,3892,22583,28738,1769
530,10658,22584,28734,1744
531,10658,22577,28730,1744
532,10658,22578,28724,1713
533,10658,22572,28719,1634
534,10658,22570,28712,1523
535,10658,22567,28704,1435
536,10658,22564,28695,1334
537,10658,22564,28691,1208
538,10658,22558,28686,1089
539,10658,22558,28683,1040
540,10658,22557,28680,993
541,10658,22553,28681,994
542,10658,22553,28676,954
543,11923,22553,28676,1001
544,11923,22552,28675,1040
545,11923,22551,28675,1043
546,11923,22547,28672,1081
547,11923,22550,28671,1097
548,11923,22540,28669,1104
549,9984,22538,28672,1111
550,9984,22536,28667,1043
551,9984,22535,28659,1083
552,9984,22530,28656,1001
553,9984,22528,28649,1087
554,9984,22522,28646,1069
555,9984,22519,28643,1150
556,9984,22521,28642,1101
557,9984,22517,28641,1102
558,9984,22513,28635,1050
559,9984,22510,28633,1071
560,9984,22509,28629,1045
561,9984,22505,28626,1072
562,18862,22498,28619,1042
563,18862,22501,28615,1052
564,18862,22498,28618,1023
565,18862,22497,28617,1063
566,18862,22496,28616,1073
567,18862,22493,28611,1061
568,26781,22490,28613,1041
569,26781,22487,28608,1021
570,26781,22487,28605,1020
571,26781,22489,28602,1008
572,26781,22487,28605,1001
573,26781,22484,28604,994
574,26781,22490,28605,918
575,26781,22491,28605,1060
576,26781,22488,28609,1213
577,26781,22495,28611,1296
578,26781,22490,28613,1349
579,26781,22492,28615,1535
580,26781,22491,28618,1879
581,21424,22493,28615,3056
582,21424,22493,28615,2710
583,21424,22490,28619,1951
584,21424,22494,28623,1627
585,21424,22497,28626,1619
586,21424,22500,28627,1721
587,21424,22499,28631,1776
588,19059,22504,28635,1850
589,19059,22506,28640,1892
590,19059,22508,28643,1936
591,19059,22510,28641,1972
592,19059,22511,28646,1994
593,19059,22512,28646,2073
594,19059,22511,28646,2090
595,19059,22511,28648,2111
596,19059,22510,28649,2128
597,19059,22513,28647,2157
598,19059,22506,28647,2192
599,19059,22510,28649,2203
600,-14982,22510,28645,2218
601,-14982,22506,28645,2209
602,-14982,22505,28648,2206
603,-14982,22506,28644,2218
604,-14982,22499,28638,2218
605,-14982,22498,28630,2211
606,-14982,22494,28626,2223
607,-641,22488,28618,2159
608,-641,22485,28610,2027
609,-641,22484,28605,1899
610,-641,22477,28598,1793
611,-641,22472,28595,1727
612,-641,22472,28590,1660
613,-641,22467,28588,1600
614,-641,22463,28588,1535
615,-641,22463,28589,1487
616,-641,22467,28586,1408
617,-641,22460,28588,1360
618,-641,22459,28587,1309
619,-641,22461,28589,1303
620,5268,22467,28595,1260
621,5268,22466,28595,1232
622,5268,22470,28605,1155
623,5268,22472,28611,1210
624,5268,22482,28620,1238
625,5268,22487,28628,1330
626,19261,22493,28641,1374
627,19261,22500,28643,1393
628,19261,22503,28650,1456
629,19261,22504,28654,1495
630,19261,22511,28659,1515
631,19261,22517,28666,1525
632,19261,22519,28672,1529
633,19261,22524,28678,1535
634,19261,22525,28685,1530
635,19261,22528,28683,1530
636,19261,22530,28685,1523
637,19261,22529,28686,1388
638,19261,22527,28685,1312
639,-1372,22527,28683,1282
640,-1372,22525,28682,1287
641,-1372,22525,28685,1328
642,-1372,22526,28685,1323
643,-1372,22523,28684,1264
644,-1372,22522,28683,1225
645,-13303,22521,28682,1189
646,-13303,22520,28685,1187
647,-13303,22524,28688,1210
648,-13303,22527,28696,1184
649,-13303,22527,28696,1173
650,-13303,22528,28698,1203
651,-13303,22533,28700,1244
652,-13303,22533,28708,1278
653,-13303,22536,28714,1331
654,-13303,22539,28713,1459
655,-13303,22537,28710,1663
656,-13303,22535,28711,2137
657,-13303,22536,28716,3503
658,4855,22537,28716,2769
659,4855,22534,28712,1885
660,4855,22531,28711,1514
661,4855,22532,28713,1594
662,4855,22530,28717,1577
663,4855,22531,28715,1617
664,-11957,22527,28712,1591
665,-11957,22526,28713,1655
666,-11957,22529,28714,1680
667,-11957,22531,28714,1702
668,-11957,22528,28718,1728
669,-11957,22535,28720,1759
670,-11957,22536,28728,1765
671,-11957,22539,28733,1814
672,-11957,22543,28734,1874
673,-11957,22543,28739,1894
674,-11957,22541,28737,1926
675,-11957,22544,28741,1970
676,-11957,22544,28740,1977
677,32493,22546,28741,1990
678,32493,22545,28738,1987
679,32493,22542,28737,2014
680,32493,22539,28731,2039
681,32493,22534,28720,2045
682,32493,22526,28709,2032
683,32493,22525,28700,1991
684,-27529,22520,28696,1904
685,-27529,22518,28686,1835
686,-27529,22515,28685,1787
687,-27529,22515,28685,1744
688,-27529,22511,28683,1739
689,-27529,22512,28681,1735
690,-27529,22511,28679,1662
691,-27529,22510,28678,1629
692,-27529,22513,28684,1584
693,-27529,22510,28678,1555
694,-27529,22503,28680,1559
695,-27529,22505,28679,1569
696,-12581,22501,28678,1567
697,-12581,22499,28671,1519
698,-12581,22500,28675,1531
699,-12581,22494,28673,1535
700,-12581,22497,28673,1556
701,-12581,22497,28677,1556
702,-12581,22496,28677,1572
703,1998,22497,28680,1555
704,1998,22498,28684,1535
705,1998,22502,28680,1557
706,1998,22498,28683,1569
707,1998,22497,28681,1571
708,1998,22499,28680,1569
709,1998,22496,28680,1639
710,1998,22490,28677,1623
711,1998,22490,28678,1729
712,1998,22490,28679,1739
713,1998,22491,28682,1749
714,1998,22489,28678,1783
715,1998,22486,28680,1806
716,8591,22487,28671,1838
717,8591,22485,28673,1811
718,8591,22485,28675,1722
719,8591,22481,28676,1722
720,8591,22479,28671,1610
721,8591,22480,28674,1648
722,11160,22481,28678,1653
723,11160,22485,28684,1745
724,11160,22486,28687,1800
725,11160,22487,28690,1843
726,11160,22495,28699,1911
727,11160,22495,28699,1966
728,11160,22497,28701,1973
729,11160,22500,28708,2124
730,11160,22500,28709,2263
731,11160,22500,28707,3184
732,11160,22499,28708,3747
733,11160,22496,28706,2850
734,11160,22495,28705,2361
735,10380,22492,28699,2128
736,10380,22485,28696,2175
737,10380,22484,28695,2238
738,10380,22479,28695,2271
739,10380,22476,28687,2306
740,10380,22475,28685,2302
741,8744,22469,28686,2384
742,8744,22470,28683,2446
743,8744,22467,28681,2497
744,8744,22471,28684,2545
745,8744,22470,28684,2531
746,8744,22473,28684,2514
747,8744,22472,28687,2512
748,8744,22467,28687,2501
749,8744,22469,28688,2543
750,8744,22470,28690,2599
751,8744,22472,28686,2599
752,8744,22469,28684,2662
753,8744,22466,28681,2722
754,6749,22461,28676,2701
755,6749,22459,28669,2674
756,6749,22451,28662,2651
757,6749,22453,28657,2617
758,6749,22449,28653,2559
759,6749,22451,28651,2512
760,12146,22446,28649,2414
761,12146,22449,28647,2343
762,12146,22455,28648,2320
763,12146,22452,28649,2284
764,12146,22449,28650,2240
765,12146,22454,28653,2241
766,12146,22456,28655,2271
767,12146,22455,28663,2320
768,12146,22461,28661,2396
769,12146,22464,28667,2433
770,12146,22464,28669,2448
771,12146,22466,28675,2506
772,12146,22467,28675,2533
773,12790,22466,28677,2546
774,12790,22468,28684,2551
775,12790,22473,28690,2591
776,12790,22472,28692,2559
777,12790,22477,28700,2559
778,12790,22481,28706,2559
779,12790,22483,28710,2550
780,18395,22486,28714,2538
781,18395,22487,28712,2547
782,18395,22486,28716,2557
783,18395,22481,28709,2551
784,18395,22485,28712,2559
785,18395,22481,28709,2559
786,18395,22480,28712,2598
787,18395,22483,28713,2605
788,18395,22482,28714,2683
789,18395,22487,28721,2736
790,18395,22488,28721,2739
791,18395,22483,28718,2749
792,-22349,22484,28714,2749
793,-22349,22480,28713,2765
794,-22349,22481,28712,2750
795,-22349,22478,28713,2741
796,-22349,22479,28715,2725
797,-22349,22474,28712,2747
798,-22349,22475,28710,2763
799,-26939,22473,28707,2737
800,-26939,22470,28709,2740
801,-26939,22470,28709,2704
802,-26939,22473,28709,2666
803,-26939,22471,28715,2709
804,-26939,22475,28715,3238
805,-26939,22475,28716,4095
806,-26939,22474,28717,4095
807,-26939,22473,28716,2795
808,-26939,22471,28722,2314
809,-26939,22474,28720,2379
810,-26939,22474,28718,2349
811,-26939,22473,28719,2318
812,-21099,22473,28723,2299
813,-21099,22467,28721,2300
814,-21099,22464,28716,2327
815,-21099,22464,28718,2342
816,-21099,22464,28716,2317
817,-21099,22463,28717,2270
818,-6693,22459,28718,2211
819,-6693,22462,28716,2155
820,-6693,22464,28718,2125
821,-6693,22465,28724,2132
822,-6693,22471,28726,2115
823,-6693,22469,28730,2090
824,-6693,22476,28735,2059
825,-6693,22480,28741,2046
826,-6693,22479,28736,2074
827,-6693,22478,28734,2047
828,-6693,22473,28724,2075
829,-6693,22466,28717,2067
830,-6693,22465,28706,2028
831,26424,22463,28700,1978
832,26424,22461,28698,1943
833,26424,22458,28694,1920
834,26424,22456,28692,1856
835,26424,22454,28691,1840
836,26424,22451,28686,1823
837,27204,22450,28685,1819
838,27204,22452,28688,1826
839,27204,22450,28685,1856
840,27204,22453,28687,1872
841,27204,22451,28692,1917
842,27204,22455,28691,1966
843,27204,22456,28698,1983
844,27204,22455,28696,1999
845,27204,22460,28701,2000
846,27204,22460,28705,1973
847,27204,22459,28705,1951
848,27204,22458,28703,1921
849,27204,22461,28703,1890
850,-10285,22457,28706,1857
851,-10285,22453,28708,1813
852,-10285,22458,28708,1753
853,-10285,22456,28716,1712
854,-10285,22455,28717,1728
855,-10285,22459,28711,1685
856,-1994,22455,28713,1671
857,-1994,22456,28717,1638
858,-1994,22452,28713,1562
859,-1994,22449,28708,1574
860,-1994,22451,28708,1578
861,-1994,22450,28707,1585
862,-1994,22444,28704,1597
863,-1994,22445,28702,1584
864,-1994,22444,28705,1616
865,-1994,22444,28703,1638
866,-1994,22440,28700,1654
867,-1994,22440,28698,1634
868,-1994,22438,28697,1616
869,6197,22439,28698,1611
870,6197,22433,28698,1595
871,6197,22432,28694,1647
872,6197,22433,28694,1581
873,6197,22430,28696,1535
874,6197,22427,28696,1507
875,6197,22425,28693,1493
876,-16228,22428,28690,1451
877,-16228,22424,28690,1513
878,-16228,22424,28689,1472
879,-16228,22423,28688,1414
880,-16228,22421,28693,1386
881,-16228,22418,28692,1338
882,-16228,22420,28688,1297
883,-16228,22419,28691,1235
884,-16228,22419,28690,1328
885,-16228,22416,28690,1691
886,-16228,22414,28684,2944
887,-16228,22411,28680,2467
888,-22793,22410,28686,1510
889,-22793,22409,28683,1109
890,-22793,22402,28682,1086
891,-22793,22405,28681,1168
892,-22793,22400,28679,1253
893,-22793,22402,28679,1269
894,-22793,22400,28678,1301
895,-25572,22400,28676,1346
896,-25572,22396,28675,1325
897,-25572,22396,28673,1317
898,-25572,22397,28673,1296
899,-25572,22396,28678,1252
900,-25572,22397,28680,1230
901,-25572,22400,28682,1250
902,-25572,22403,28680,1328
903,-25572,22401,28677,1309
904,-25572,22405,28680,1360
905,-25572,22398,28677,1378
906,-25572,22400,28677,1398
907,-25572,22398,28679,1425
908,-19479,22395,28673,1488
909,-19479,22395,28667,1567
910,-19479,22394,28663,1631
911,-19479,22394,28660,1667
912,-19479,22391,28653,1681
913,-19479,22391,28650,1663
914,-3784,22390,28647,1616
915,-3784,22390,28645,1577
916,-3784,22390,28640,1564
917,-3784,22387,28644,1595
918,-3784,22389,28642,1606
919,-3784,22391,28647,1636
920,-3784,22390,28647,1670
921,-3784,22392,28651,1700
922,-3784,22393,28656,1749
923,-3784,22397,28656,1776
924,-3784,22398,28660,1776
925,-3784,22400,28663,1751
926,-3784,22403,28669,1794
927,3321,22402,28669,1808
928,3321,22405,28676,1753
929,3321,22408,28674,1815
930,3321,22408,28683,1846
931,3321,22413,28684,1857
932,3321,22418,28684,1872
933,3530,22417,28693,1893
934,3530,22416,28688,1578
935,3530,22417,28691,1884
936,3530,22423,28692,1833
937,3530,22419,28694,1904
938,3530,22417,28693,1904
939,3530,22421,28692,1953
940,3530,22421,28693,1989
941,3530,22421,28693,2041
942,3530,22419,28693,2068
943,3530,22421,28692,2151
944,3530,22419,28690,2212
945,3530,22417,28686,2224
946,4586,22418,28690,2176
947,4586,22415,28690,2384
948,4586,22415,28687,2451
949,4586,22413,28687,2477
950,4586,22414,28681,2546
951,4586,22416,28684,2559
952,3589,22416,28684,2621
953,3589,22410,28681,2639
954,3589,22411,28678,2663
955,3589,22409,28677,2683
956,3589,22409,28677,2691
957,3589,22407,28678,2735
958,3589,22407,28673,2727
959,3589,22403,28669,2722
960,3589,22402,28669,2739
961,3589,22400,28665,2813
962,3589,22395,28665,2942
963,3589,22396,28660,4095
964,3589,22394,28663,4095
965,3016,22393,28662,4095
966,3016,22390,28659,2960
967,3016,22392,28657,2627
968,3016,22385,28658,2708
969,3016,22386,28650,2704
970,3016,22380,28650,2725
971,3016,22379,28643,2736
972,-3336,22376,28647,2725
973,-3336,22374,28646,2732
974,-3336,22372,28643,2735
975,-3336,22376,28640,2726
976,-3336,22370,28641,2687
977,-3336,22366,28641,2645
978,-3336,22370,28636,2622
979,-3336,22370,28636,2611
980,-3336,22366,28635,2559
981,-3336,22365,28636,2544
982,-3336,22371,28636,2507
983,-3336,22369,28636,2515
984,574,22371,28635,2514
985,574,22364,28633,2513
986,574,22366,28633,2506
987,574,22363,28628,2496
988,574,22367,28625,2487
989,574,22365,28620,2437
990,574,22363,28609,2370
991,-1508,22364,28607,2268
992,-1508,22358,28603,2160
993,-1508,22360,28601,2078
994,-1508,22360,28601,1984
995,-1508,22359,28606,1941
996,-1508,22361,28606,1867
997,-1508,22359,28606,1782
998,-1508,22362,28607,1727
999,-1508,22363,28604,1679
1000,-1508,22360,28606,1634
1001,-1508,22362,28608,1584
1002,-1508,22360,28612,1507
1003,-1508,22363,28609,1438
1004,-9840,22361,28603,1419
1005,-9840,22359,28610,1407
1006,-9840,22359,28606,1385
1007,-9840,22357,28607,1369
1008,-9840,22356,28610,1347
1009,-9840,22358,28606,1328
1010,30240,22357,28611,1112
1011,30240,22358,28609,321
1012,30240,22357,28609,0
1013,30240,22355,28611,0
1014,30240,22353,28605,0
1015,30240,22353,28603,0
1016,30240,22355,28600,0
1017,30240,22352,28601,0
1018,30240,22351,28600,0
1019,30240,22350,28601,0
1020,30240,22349,28597,0
1021,30240,22347,28598,0
1022,30240,22346,28600,0
1023,-22964,22347,28597,0
1024,-22964,22342,28598,0
1025,-22964,22347,28595,0
1026,-22964,22345,28592,0
1027,-22964,22345,28599,0
1028,-22964,22347,28596,0
1029,8226,22347,28599,0
1030,8226,22350,28603,0
1031,8226,22348,28601,54
1032,8226,22352,28606,69
1033,8226,22354,28605,238
1034,8226,22357,28610,945
1035,8226,22360,28613,1370
1036,8226,22360,28618,1451
1037,8226,22361,28623,1327
1038,8226,22371,28624,1253
1039,8226,22370,28628,1591
1040,8226,22374,28635,2832
1041,8226,22378,28640,2301
1042,9127,22381,28647,1431
1043,9127,22385,28647,1099
1044,9127,22386,28648,1159
1045,9127,22384,28645,1278
1046,9127,22384,28647,1341
1047,9127,22383,28645,1451
1048,-15343,22388,28644,1559
1049,-15343,22390,28650,1679
1050,-15343,22388,28650,1778
1051,-15343,22388,28646,1874
1052,-15343,22384,28644,1955
1053,-15343,22385,28648,2023
1054,-15343,22381,28649,2109
1055,-15343,22384,28648,2179
1056,-15343,22383,28650,2241
1057,-15343,22386,28651,2288
1058,-15343,22386,28655,2357
1059,-15343,22387,28659,2431
1060,-15343,22385,28650,2545
1061,-12051,22378,28631,2633
1062,-12051,22374,28610,2727
1063,-12051,22363,28579,2799
1064,-12051,22353,28543,2831
1065,-12051,22344,28510,2854
1066,-12051,22335,28483,2859
1067,-12051,22332,28465,2822
1068,-27275,22325,28456,2826
1069,-27275,22327,28444,2800
1070,-27275,22326,28444,2768
1071,-27275,22323,28439,2766
1072,-27275,22320,28438,2737
1073,-27275,22319,28432,2705
1074,-27275,22324,28433,2688
1075,-27275,22319,28431,2677
1076,-27275,22318,28430,2701
1077,-27275,22316,28432,2673
1078,-27275,22318,28435,2671
1079,-27275,22319,28437,2653
1080,-23767,22317,28436,2640
1081,-23767,22321,28437,2618
1082,-23767,22318,28439,2590
1083,-23767,22321,28444,2528
1084,-23767,22326,28445,2501
1085,-23767,22325,28448,2445
1086,-23767,22325,28454,2400
1087,-2142,22327,28458,2340
1088,-2142,22330,28462,2304
1089,-2142,22324,28464,2320
1090,-2142,22325,28467,2314
1091,-2142,22326,28470,2384
1092,-2142,22327,28473,2503
1093,-2142,22324,28477,2610
1094,-2142,22324,28476,2636
1095,-2142,22329,28477,2543
1096,-2142,22326,28474,2487
1097,-2142,22324,28471,2419
1098,-2142,22319,28476,2307
1099,-2142,22321,28475,2203
1100,-5476,22319,28472,2098
1101,-5476,22318,28467,2000
1102,-5476,22317,28470,1893
1103,-5476,22314,28468,1809
1104,-5476,22314,28468,1722
1105,-5476,22313,28467,1607
1106,-32339,22315,28466,1475
1107,-32339,22312,28464,1408
1108,-32339,22314,28470,1349
1109,-32339,22311,28474,1242
1110,-32339,22314,28478,1104
1111,-32339,22310,28484,1040
1112,-32339,22319,28437,963
1113,-32339,22312,28489,813
1114,-32339,22314,28488,666
1115,-32339,22317,28496,608
1116,-32339,22315,28503,557
1117,-32339,22314,28504,471
1118,-32339,22314,28509,429
1119,-19572,22314,28515,400
1120,-19572,22318,28515,331
1121,-19572,22315,28521,358
1122,-19572,22317,28523,474
1123,-19572,22320,28529,1702
1124,-19572,22323,28531,1577
1125,-9607,22322,28536,490
1126,-9607,22323,28541,0
1127,-9607,22320,28546,0
1128,-9607,22322,28553,0
1129,-9607,22325,28555,0
1130,-9607,22326,28559,0
1131,-9607,22329,28567,0
1132,-9607,22326,28567,0
1133,-9607,22330,28568,0
1134,-9607,22329,28572,0
1135,-9607,22331,28576,0
1136,-9607,22326,28579,0
1137,-9607,22329,28582,0
1138,-5771,22327,28584,17
1139,-5771,22333,28587,45
1140,-5771,22332,28592,79
1141,-5771,22331,28597,88
1142,-5771,22331,28599,122
1143,-5771,22330,28596,165
1144,4486,22327,28591,208
1145,4486,22326,28579,244
1146,4486,22319,28551,240
1147,4486,22310,28515,260
1148,4486,22299,28481,320
1149,4486,22286,28457,331
1150,4486,22288,28443,289
1151,4486,22281,28428,243
1152,4486,22279,28422,208
1153,4486,22283,28421,182
1154,4486,22280,28422,192
1155,4486,22282,28426,225
1156,4486,22284,28430,289
1157,7526,22286,28431,344
1158,7526,22287,28435,351
1159,7526,22287,28440,384
1160,7526,22289,28437,452
1161,7526,22290,28444,473
1162,7526,22293,28445,471
1163,7526,22291,28446,528
1164,8831,22296,28450,523
1165,8831,22291,28447,592
1166,8831,22289,28452,650
1167,8831,22294,28454,697
1168,8831,22291,28453,775
1169,8831,22291,28458,833
1170,8831,22290,28461,867
1171,8831,22294,28463,939
1172,8831,22291,28468,989
1173,8831,22290,28472,1047
1174,8831,22294,28475,1073
1175,8831,22291,28481,1150
1176,4786,22292,28484,1125
1177,4786,22291,28490,1146
1178,4786,22294,28494,1068
1179,4786,22298,28495,1115
1180,4786,22297,28499,1022
1181,4786,22297,28502,985
1182,4786,22301,28507,961
1183,961,22303,28511,965
1184,961,22304,28514,1051
1185,961,22306,28517,1163
1186,961,22307,28523,1189
1187,961,22307,28530,1214
1188,961,22311,28534,1297
1189,961,22314,28540,1396
1190,961,22316,28541,1435
1191,961,22317,28551,1477
1192,961,22319,28556,1568
1193,961,22321,28563,1647
1194,961,22317,28563,1734
1195,961,22320,28565,1834
1196,3236,22313,28569,1941
1197,3236,22313,28569,2011
1198,3236,22312,28572,2151
1199,3236,22315,28574,2355
1200,3236,22311,28577,3242
1201,3236,22316,28584,4095
1202,-2937,22316,28589,3569
1203,-2937,22320,28593,2742
1204,-2937,22318,28596,2512
1205,-2937,22321,28601,2559
1206,-2937,22321,28606,2629
1207,-2937,22323,28607,2672
1208,-2937,22323,28610,2730
1209,-2937,22326,28618,2802
1210,-2937,22329,28627,2864
1211,-2937,22330,28632,2943
1212,-2937,22332,28635,2970
1213,-2937,22332,28638,3047
1214,-2937,22331,28638,3114
1215,5956,22331,28638,3171
1216,5956,22327,28636,3367
1217,5956,22327,28639,3295
1218,5956,22326,28640,3329
1219,5956,22331,28645,3370
1220,5956,22331,28646,3386
1221,-1008,22330,28647,3394
1222,-1008,22333,28636,3366
1223,-1008,22321,28620,3355
1224,-1008,22317,28586,3435
1225,-1008,22309,28556,3367
1226,-1008,22299,28527,3297
1227,-1008,22293,28510,3213
1228,-1008,22290,28492,3088
1229,-1008,22289,28487,2961
1230,-1008,22287,28482,2870
1231,-1008,22285,28483,2789
1232,-1008,22287,28483,2707
1233,-1008,22288,28484,2660
1234,20443,22286,28485,2624
1235,20443,22291,28493,2598
1236,20443,22291,28493,2559
1237,20443,22293,28494,2547
1238,20443,22297,28498,2519
1239,20443,22301,28502,2494
1240,-32600,22294,28500,2453
1241,-32600,22295,28499,2414
1242,-32600,22293,28504,2368
1243,-32600,22296,28505,2323
1244,-32600,22294,28509,2320
1245,-32600,22299,28509,2320
1246,-32600,22299,28516,2298
1247,-32600,22304,28526,2243
1248,-32600,22310,28530,2227
1249,-32600,22309,28536,2203
1250,-32600,22309,28537,2163
1251,-32600,22306,28541,2156
1252,-32600,22305,28544,2159
1253,-11596,22308,28547,2110
1254,-11596,22309,28548,2064
1255,-11596,22311,28551,2054
1256,-11596,22308,28554,2043
1257,-11596,22308,28554,2042
1258,-11596,22309,28554,2032
1259,-11596,22306,28549,2013
1260,25356,22306,28550,2034
1261,25356,22304,28556,2007
1262,25356,22304,28553,1988
1263,25356,22308,28558,1970
1264,25356,22285,28483,1915
1265,25356,22304,28564,1921
1266,25356,22308,28565,1937
1267,25356,22309,28572,1922
1268,25356,22312,28574,1906
1269,25356,22310,28577,1920
1270,25356,22312,28589,1931
1271,25356,22309,28593,1907
1272,-5311,22309,28596,1934
1273,-5311,22314,28601,1925
1274,-5311,22317,28603,1901
1275,-5311,22317,28606,1857
1276,-5311,22319,28609,1824
1277,-5311,22314,28611,1751
1278,-5311,22322,28619,1719
1279,23558,22323,28627,1734
1280,23558,22322,28627,1727
1281,23558,22326,28638,2558
1282,23558,22327,28641,3647
1283,23558,22330,28649,2490
1284,23558,22330,28652,1712
1285,23558,22331,28653,1462
1286,23558,22331,28656,1472
1287,23558,22333,28661,1456
1288,23558,22332,28661,1451
1289,23558,22330,28662,1481
1290,23558,22335,28667,1520
1291,23558,22330,28669,1553
1292,20411,22332,28672,1575
1293,20411,22334,28671,1616
1294,20411,22335,28678,1622
1295,20411,22340,28685,1627
1296,20411,22341,28688,1654
1297,20411,22341,28690,1664
1298,-8127,22343,28700,1680
1299,-8127,22343,28700,1709
1300,-8127,22342,28698,1742
1301,-8127,22342,28699,1769
1302,-8127,22341,28697,1787
1303,-8127,22336,28683,1858
1304,-8127,22331,28661,1903
1305,-8127,22325,28632,1933
1306,-8127,22314,28599,1966
1307,-8127,22307,28578,2001
1308,-8127,22299,28560,2002
1309,-8127,22297,28547,1983
1310,-8127,22293,28546,1963
1311,-13145,22294,28541,1949
1312,-13145,22292,28540,1909
1313,-13145,22292,28541,1892
1314,-13145,22299,28541,1919
1315,-13145,22297,28545,1945
1316,-13145,22302,28549,1961
1317,-3511,22304,28550,1978
1318,-3511,22299,28553,2002
1319,-3511,22302,28554,2017
1320,-3511,22299,28553,2043
1321,-3511,22298,28554,2046
1322,-3511,22298,28550,2066
1323,-3511,22301,28555,2061
1324,-3511,22299,28555,2063
1325,-3511,22305,28559,2087
1326,-3511,22299,28562,2133
1327,-3511,22301,28570,2141
1328,-3511,22303,28569,2170
1329,-3511,22301,28575,2233
1330,-11073,22306,28581,2258
1331,-11073,22307,28591,2262
1332,-11073,22314,28597,2294
1333,-11073,22313,28598,2310
1334,-11073,22311,28596,2334
1335,-11073,22309,28602,2320
1336,-23628,22304,28601,2352
1337,-23628,22305,28602,2375
1338,-23628,22304,28605,2370
1339,-23628,22304,28604,2339
1340,-23628,22308,28608,2357
1341,-23628,22302,28607,2379
1342,-23628,22306,28602,2394
1343,-23628,22304,28611,2416
1344,-23628,22305,28610,2394
1345,-23628,22306,28612,2350
1346,-23628,22303,28616,2321
1347,-23628,22303,28618,2295
1348,-23628,22305,28623,2317
1349,25467,22304,28626,2349
1350,25467,22306,28629,2316
1351,25467,22307,28630,2295
1352,25467,22307,28635,2287
1353,25467,22306,28637,2279
1354,25467,22308,28640,2240
1355,25467,22305,28639,2241
1356,-18223,22306,28639,2209
1357,-18223,22307,28643,2213
1358,-18223,22307,28644,2225
1359,-18223,22305,28645,2219
1360,-18223,22306,28648,2192
1361,-18223,22308,28653,2162
1362,-18223,22308,28660,2199
1363,-18223,22309,28659,2229
1364,-18223,22307,28663,2879
1365,-18223,22308,28665,4095
1366,-18223,22306,28665,2992
1367,-18223,22306,28665,2253
1368,-1661,22304,28665,1967
1369,-1661,22304,28668,1991
1370,-1661,22304,28665,1981
1371,-1661,22302,28665,1967
1372,-1661,22301,28664,1935
1373,-1661,22300,28664,1953
1374,-1661,22301,28670,1969
1375,8640,22296,28669,1934
1376,8640,22297,28667,1922
1377,8640,22295,28668,1894
1378,8640,22297,28667,1873
1379,8640,22296,28672,1903
1380,8640,22295,28669,1887
1381,8640,22293,28672,1904
1382,8640,22294,28671,1930
1383,8640,22293,28672,1938
1384,8640,22290,28671,1938
1385,8640,22290,28664,1953
1386,8640,22286,28655,1968
1387,8640,22279,28631,1974
1388,12098,22270,28604,1968
1389,12098,22259,28573,2005
1390,12098,22252,28545,2026
1391,12098,22243,28528,1984
1392,12098,22240,28511,1939
1393,12098,22238,28502,1858
1394,5033,22233,28499,1794
1395,5033,22232,28498,1757
1396,5033,22236,28499,1699
1397,5033,22238,28495,1713
1398,5033,22235,28502,1679
1399,5033,22238,28503,1686
1400,5033,22236,28508,1664
1401,5033,22237,28507,1678
1402,5033,22237,28505,1600
1403,5033,22238,28509,1728
1404,5033,22236,28514,1732
1405,5033,22236,28513,1758
1406,5033,22237,28510,1741
1407,3490,22235,28513,1814
1408,3490,22237,28513,1471
1409,3490,22237,28513,1875
1410,3490,22236,28517,1842
1411,3490,22240,28518,1942
1412,3490,22236,28524,1957
1413,6954,22239,28527,1983
1414,6954,22237,28528,1981
1415,6954,22241,28535,1995
1416,6954,22293,28672,1979
1417,6954,22243,28541,1955
1418,6954,22242,28544,1941
1419,6954,22241,28545,1926
1420,6954,22237,28541,1924
1421,6954,22237,28540,1919
1422,6954,22233,28539,1887
1423,6954,22234,28541,1885
1424,6954,22231,28540,1902
1425,6954,22233,28539,1889
1426,4059,22235,28541,1934
1427,4059,22232,28541,1974
1428,4059,22234,28542,1991
1429,4059,22237,28543,1968
1430,4059,22237,28545,1861
1431,4059,22235,28546,1999
1432,1929,22230,28545,1999
1433,1929,22231,28548,2001
1434,1929,22234,28547,2034
1435,1929,22235,28549,2063
1436,1929,22234,28551,2080
1437,1929,22239,28553,2031
1438,1929,22232,28560,2030
1439,1929,22237,28561,2013
1440,1929,22238,28566,2118
1441,1929,22238,28574,2219
1442,1929,22238,28577,3197
1443,1929,22243,28584,3914
1444,1929,22245,28588,2770
1445,28455,22242,28595,2198
1446,28455,22245,28594,1947
1447,28455,22246,28597,1983
1448,28455,22246,28596,1904
1449,28455,22244,28597,1808
1450,28455,22245,28601,1763
1451,28455,22245,28603,1725
1452,26615,22243,28604,1723
1453,26615,22245,28609,1723
1454,26615,22251,28614,1761
1455,26615,22247,28614,1776
1456,26615,22250,28620,1804
1457,26615,22249,28620,1841
1458,26615,22250,28625,1899
1459,26615,22249,28627,1947
1460,26615,22245,28628,1970
1461,26615,22245,28628,2011
1462,26615,22248,28625,2086
1463,26615,22243,28618,2128
1464,25973,22242,28606,2160
1465,25973,22233,28585,2191
1466,25973,22225,28565,2227
1467,25973,22218,28539,2255
1468,25973,22215,28519,2263
1469,25973,22213,28507,2231
1470,25973,22207,28494,2192
1471,31508,22204,28490,2150
1472,31508,22202,28481,2098
1473,31508,22201,28482,2112
1474,31508,22198,28480,2127
1475,31508,22202,28480,2112
1476,31508,22203,28482,2123
1477,31508,22203,28486,2141
1478,31508,22205,28491,2117
1479,31508,22204,28490,2112
1480,31508,22205,28493,2105
1481,31508,22205,28495,2118
1482,31508,22208,28497,2105
1483,31508,22208,28501,2123
1484,3265,22206,28500,2142
1485,3265,22207,28499,2127
1486,3265,22206,28500,2130
1487,3265,22208,28502,2143
1488,3265,22208,28510,2157
1489,3265,22212,28511,2179
1490,2529,22214,28522,2186
1491,2529,22212,28525,2179
1492,2529,22213,28530,2183
1493,2529,22213,28527,2185
1494,2529,22212,28530,2191
1495,2529,22216,28534,2199
1496,2529,22210,28539,2207
1497,2529,22215,28542,2215
1498,2529,22214,28543,2211
1499,2529,22215,28549,2197
1500,2529,22215,28547,2181
1501,2529,22217,28550,2189
1502,2529,22216,28548,1998
1503,-28827,22216,28551,2213
1504,-28827,22217,28548,2224
1505,-28827,22218,28551,2201
1506,-28827,22220,28552,2222
1507,-28827,22219,28550,2224
1508,-28827,22216,28551,2282
1509,6967,22217,28556,2353
1510,6967,22218,28554,2378
1511,6967,22216,28559,2321
1512,6967,22217,28562,2304
1513,6967,22218,28567,2304
1514,6967,22218,28568,2320
1515,6967,22221,28572,2293
1516,6967,22220,28576,2301
1517,6967,22217,28578,2288
1518,6967,22220,28584,2259
1519,6967,22221,28589,2227
1520,6967,22223,28589,2224
1521,6967,22222,28591,2155
1522,4552,22220,28595,2118
1523,4552,22223,28599,2183
1524,4552,22225,28598,2731
1525,4552,22223,28601,4095
1526,4552,22222,28606,3395
1527,4552,22222,28609,2236
1528,-8867,22228,28615,1914
1529,-8867,22228,28620,1936
1530,-8867,22230,28626,1919
1531,-8867,22231,28624,1897
1532,-8867,22232,28622,1903
1533,-8867,22233,28627,1914
1534,-8867,22234,28633,1901
1535,-8867,22232,28635,1874
1536,-8867,22233,28639,1875
1537,-8867,22232,28642,1879
1538,-8867,22231,28645,1869
1539,-8867,22233,28645,1887
1540,-8867,22230,28643,1863
1541,-9591,22230,28644,1891
1542,-9591,22228,28647,1876
1543,-9591,22230,28645,1872
1544,-9591,22232,28641,1901
1545,-9591,22230,28635,1919
1546,-9591,22223,28624,1934
1547,-9591,22219,28599,1937
1548,-16936,22215,28576,1950
1549,-16936,22207,28559,1957
1550,-16936,22201,28540,1967
1551,-16936,22201,28526,1901
1552,-16936,22200,28520,1808
1553,-16936,22197,28513,1732
1554,-16936,22198,28511,1686
1555,-16936,22192,28508,1608
1556,-16936,22196,28512,1582
1557,-16936,22191,28511,1570
1558,-16936,22193,28512,1526
1559,-16936,22196,28513,1484
1560,-9928,22196,28513,1447
1561,-9928,22195,28515,1417
1562,-9928,22197,28515,1434
1563,-9928,22198,28514,1418
1564,-9928,22196,28514,1424
1565,-9928,22198,28517,1426
1566,-9928,22197,28519,1422
1567,-18173,22199,28521,1406
1568,-18173,22232,28635,1351
1569,-18173,22197,28520,1349
1570,-18173,22198,28527,1315
1571,-18173,22200,28532,1310
1572,-18173,22199,28535,1310
1573,-18173,22203,28541,1282
1574,-18173,22204,28543,1255
1575,-18173,22202,28549,1247
1576,-18173,22203,28552,1264
1577,-18173,22202,28556,1229
1578,-18173,22204,28556,1237
1579,-18173,22201,28559,1221
1580,-19383,22205,28559,1187
1581,-19383,22203,28562,1171
1582,-19383,22207,28561,1155
1583,-19383,22206,28566,1151
1584,-19383,22208,28566,1095
1585,-19383,22205,28568,1059
1586,-20892,22208,28568,1006
1587,-20892,22208,28567,996
1588,-20892,22206,28569,991
1589,-20892,22208,28569,944
1590,-20892,22206,28571,912
1591,-20892,22207,28575,862
1592,-20892,22201,28574,861
1593,-20892,22197,28575,894
1594,-20892,22202,28572,865
1595,-20892,22199,28570,851
1596,-20892,22194,28573,811
1597,-20892,22194,28573,789
1598,-20892,22196,28570,779
1599,-8403,22191,28571,722
1600,-8403,22195,28572,770
1601,-8403,22192,28574,798
1602,-8403,22190,28579,774
1603,-8403,22192,28585,756
1604,-8403,22196,28585,754
1605,-962,22194,28588,711
1606,-962,22191,28591,813
1607,-962,22192,28593,896
1608,-962,22192,28592,1882
1609,-962,22191,28598,2384
1610,-962,22194,28600,1456
1611,-962,22194,28605,803
1612,-962,22198,28607,604
1613,-962,22196,28612,615
1614,-962,22196,28611,557
1615,-962,22195,28612,506
1616,-962,22191,28610,545
1617,-962,22192,28611,557
1618,12084,22195,28613,557
1619,12084,22194,28615,528
1620,12084,22195,28619,511
1621,12084,22194,28620,506
1622,12084,22197,28622,503
1623,12084,22197,28623,543
1624,16637,22204,28628,493
1625,16637,22205,28625,537
1626,16637,22198,28628,533
1627,16637,22204,28634,624
1628,16637,22197,28626,653
1629,16637,22197,28624,705
1630,16637,22193,28615,703
1631,16637,22187,28592,787
1632,16637,22177,28563,789
1633,16637,22170,28538,795
1634,16637,22164,28510,758
1635,16637,22155,28495,780
1636,16637,22151,28482,705
1637,15864,22150,28472,673
1638,15864,22144,28465,570
1639,15864,22145,28462,571
1640,15864,22143,28464,222
1641,15864,22144,28461,553
1642,15864,22142,28460,511
1643,15864,22140,28461,554
1644,6026,22140,28459,487
1645,6026,22136,28458,527
1646,6026,22135,28451,574
1647,6026,22131,28454,592
1648,6026,22129,28446,585
1649,6026,22127,28446,598
1650,6026,22125,28448,673
1651,6026,22120,28445,667
1652,6026,22121,28444,656
1653,6026,22124,28444,678
1654,6026,22122,28441,725
1655,6026,22120,28450,752
1656,-5049,22125,28450,733
1657,-5049,22120,28453,759
1658,-5049,22120,28454,764
1659,-5049,22120,28462,768
1660,-5049,22124,28467,794
1661,-5049,22127,28472,747
1662,-5049,22129,28475,700
1663,-5366,22132,28476,706
1664,-5366,22132,28480,713
1665,-5366,22135,28485,623
1666,-5366,22136,28485,563
1667,-5366,22136,28487,481
1668,-5366,22135,28486,511
1669,-5366,22139,28484,529
1670,-5366,22136,28482,533
1671,-5366,22135,28486,472
1672,-5366,22135,28480,455
1673,-5366,22131,28480,473
1674,-5366,22135,28484,489
1675,-5366,22132,28479,545
1676,-2583,22133,28482,533
1677,-2583,22130,28485,551
1678,-2583,22125,28487,577
1679,-2583,22128,28490,595
1680,-2583,22128,28489,625
1681,-2583,22126,28492,603
1682,-3002,22129,28495,705
1683,-3002,22127,28493,803
1684,-3002,22128,28498,1393
1685,-3002,22129,28506,2242
1686,-3002,22133,28515,1618
1687,-3002,22131,28516,939
1688,-3002,22130,28521,657
1689,-3002,22134,28523,669
1690,-3002,22135,28529,680
1691,-3002,22139,28528,672
1692,-3002,22140,28534,720
1693,-3002,22141,28537,774
1694,-3002,22139,28540,820
1695,2775,22142,28545,843
1696,2775,22147,28548,883
1697,2775,22143,28554,944
1698,2775,22146,28556,1002
1699,2775,22147,28560,1059
1700,2775,22153,28562,1127
1701,29509,22149,28562,1164
1702,29509,22148,28566,1232
1703,29509,22151,28565,1271
1704,29509,22149,28560,1327
1705,29509,22147,28555,1385
1706,29509,22143,28546,1447
1707,29509,22138,28530,1502
1708,29509,22128,28506,1577
1709,29509,22123,28481,1606
1710,29509,22119,28464,1601
1711,29509,22115,28453,1621
1712,29509,22115,28453,1563
1713,29509,22112,28443,1518
1714,-30742,22111,28433,1454
1715,-30742,22109,28434,1422
1716,-30742,22108,28428,1410
1717,-30742,22108,28430,1405
1718,-30742,22108,28429,1427
1719,-30742,22133,28515,1434
1720,17942,22104,28429,1439
1721,17942,22107,28434,1439
1722,17942,22107,28433,1457
1723,17942,22107,28435,1488
1724,17942,22110,28440,1488
1725,17942,22111,28445,1488
1726,17942,22107,28444,1499
1727,17942,22108,28449,1489
1728,17942,22112,28449,1503
1729,17942,22109,28451,1552
1730,17942,22116,28452,1559
1731,17942,22117,28457,1586
1732,17942,22119,28467,1587
1733,-28324,22122,28471,1594
1734,-28324,22120,28475,1600
1735,-28324,22121,28479,1603
1736,-28324,22120,28484,1611
1737,-28324,22126,28484,1605
1738,-28324,22124,28489,1585
1739,-28324,22127,28493,1589
1740,-13954,22126,28491,1535
1741,-13954,22121,28485,1535
1742,-13954,22119,28482,1527
1743,-13954,22123,28485,1518
1744,-13954,22118,28491,1517
1745,-13954,22116,28491,1535
1746,-13954,22122,28491,1535
1747,-13954,22123,28503,1570
1748,-13954,22132,28504,1643
1749,-13954,22129,28507,1691
1750,-13954,22127,28506,1641
1751,-13954,22126,28505,1618
1752,7053,22126,28510,1608
1753,7053,22127,28514,1647
1754,7053,22127,28516,1655
1755,7053,22130,28522,1662
1756,7053,22129,28524,1643
1757,7053,22132,28531,1683
1758,7053,22131,28535,1653
1759,-10180,22134,28535,1664
1760,-10180,22131,28535,1689
1761,-10180,22129,28544,1660
1762,-10180,22132,28547,1780
1763,-10180,22134,28554,1907
1764,-10180,22133,28557,3261
1765,-10180,22132,28562,3524
1766,-10180,22133,28565,2245
1767,-10180,22134,28564,1697
1768,-10180,22135,28566,1654
1769,-10180,22136,28569,1690
1770,-10180,22136,28573,1696
1771,-10180,22141,28572,1699
1772,11127,22141,28580,1712
1773,11127,22141,28586,1714
1774,11127,22145,28593,1750
1775,11127,22147,28592,1744
1776,11127,22148,28600,1763
1777,11127,22148,28606,1776
1778,-14381,22155,28605,1839
1779,-14381,22158,28614,1875
1780,-14381,22157,28621,1891
1781,-14381,22160,28625,1935
1782,-14381,22159,28631,1973
1783,-14381,22163,28637,1985
1784,-14381,22167,28637,2019
1785,-14381,22164,28629,2041
1786,-14381,22158,28613,2080
1787,-14381,22156,28586,2096
1788,-14381,22147,28560,2115
1789,-14381,22140,28536,2098
1790,-14381,22135,28518,2113
1791,-4264,22131,28505,2114
1792,-4264,22130,28497,2057
1793,-4264,22125,28493,2030
1794,-4264,22126,28493,2003
1795,-4264,22125,28492,1997
1796,-4264,22125,28490,2018
1797,-29454,22125,28488,2021
1798,-29454,22127,28489,2038
1799,-29454,22127,28493,2032
1800,-29454,22126,28499,2075
1801,-29454,22126,28498,2073
1802,-29454,22124,28498,2086
1803,-29454,22128,28499,2106
1804,-29454,22128,28501,2149
1805,-29454,22128,28502,2160
1806,-29454,22126,28498,2175
1807,-29454,22128,28504,2186
1808,-29454,22130,28504,2182
1809,-29454,22132,28509,2182
1810,-14838,22132,28512,2206
1811,-14838,22133,28517,2234
1812,-14838,22136,28519,2222
1813,-14838,22136,28528,2221
1814,-14838,22143,28535,2203
1815,-14838,22143,28542,2183
1816,7813,22145,28546,2143
1817,7813,22146,28547,2123
1818,7813,22145,28550,2083
1819,7813,22147,28553,2059
1820,7813,22145,28555,2067
1821,7813,22145,28551,2089
1822,7813,22143,28554,2064
1823,7813,22140,28549,2039
1824,7813,22141,28550,2097
1825,7813,22139,28546,2141
1826,7813,22140,28544,2134
1827,7813,22139,28539,2140
1828,7813,22132,28539,2158
1829,-13418,22135,28544,2169
1830,-13418,22135,28549,2160
1831,-13418,22138,28549,2157
1832,-13418,22137,28556,2146
1833,-13418,22139,28557,2165
1834,-13418,22138,28562,2190
1835,-13418,22143,28566,2236
1836,-27568,22146,28570,2201
1837,-27568,22144,28573,2160
1838,-27568,22145,28579,2135
1839,-27568,22142,28583,2131
1840,-27568,22141,28583,2118
1841,-27568,22142,28585,2090
1842,-27568,22140,28589,2107
1843,-27568,22142,28596,2103
1844,-27568,22143,28595,2119
1845,-27568,22144,28600,2122
1846,-27568,22149,28599,2090
1847,-27568,22144,28602,2074
1848,-27899,22147,28603,2112
1849,-27899,22147,28607,2203
1850,-27899,22145,28610,3056
1851,-27899,22150,28613,4095
1852,-27899,22150,28616,3109
1853,-27899,22150,28619,2145
1854,-27899,22150,28623,1940
1855,-2430,22152,28624,1957
1856,-2430,22147,28621,1965
1857,-2430,22148,28621,1985
1858,-2430,22145,28620,2015
1859,-2430,22147,28621,2083
1860,-2430,22142,28621,2121
1861,-2430,22142,28621,2151
1862,-2430,22145,28624,2153
1863,-2430,22141,28621,2151
1864,-2430,22141,28621,2179
1865,-2430,22143,28622,2191
1866,-2430,22141,28622,2193
1867,-2430,22141,28628,2241
1868,-1076,22138,28626,2274
1869,-1076,22138,28631,2264
1870,-1076,22139,28631,2282
1871,-1076,22138,28626,2317
1872,-1076,22136,28620,2363
1873,-1076,22131,28599,2365
1874,3145,22126,28581,2361
1875,3145,22118,28553,2382
1876,3145,22112,28527,2385
1877,3145,22106,28513,2375
1878,3145,22099,28499,2346
1879,3145,22100,28493,2247
1880,3145,22100,28489,2174
1881,3145,22095,28483,2143
1882,3145,22097,28480,2128
1883,3145,22098,28479,2117
1884,3145,22095,28480,2093
1885,3145,22097,28481,2115
1886,3145,22099,28482,2207
1887,4006,22094,28480,2137
1888,4006,22095,28482,2130
1889,4006,22097,28483,2143
1890,4006,22096,28481,2186
1891,4006,22096,28476,2176
1892,4006,22095,28476,2177
1893,5675,22093,28476,2192
1894,5675,22091,28475,2163
1895,5675,22090,28479,2167
1896,5675,22087,28478,2160
1897,5675,22090,28482,2161
1898,5675,22089,28482,2207
1899,5675,22091,28487,2174
1900,5675,22093,28494,2179
1901,5675,22092,28495,2176
1902,5675,22092,28497,1904
1903,5675,22092,28499,2166
1904,5675,22091,28501,2167
1905,5675,22094,28507,2175
1906,6264,22095,28511,2146
1907,6264,22095,28507,2149
1908,6264,22097,28512,2163
1909,6264,22097,28511,2153
1910,6264,22100,28517,2177
1911,6264,22100,28516,2160
1912,3912,22099,28521,2154
1913,3912,22101,28525,2142
1914,3912,22100,28528,2185
1915,3912,22103,28533,2256
1916,3912,22104,28536,2267
1917,3912,22104,28538,2253
1918,3912,22105,28540,2191
1919,3912,22105,28543,2169
1920,3912,22108,28546,2146
1921,3912,22108,28547,2163
1922,3912,22107,28553,2133
1923,3912,22112,28554,2198
1924,3912,22109,28560,2234
1925,7474,22112,28564,2256
1926,7474,22111,28568,2237
1927,7474,22111,28570,2225
1928,7474,22116,28573,2223
1929,7474,22114,28577,2359
1930,7474,22115,28578,2701
1931,7474,22116,28582,4095
1932,9678,22114,28583,3666
1933,9678,22115,28583,2559
1934,9678,22113,28584,2158
1935,9678,22110,28587,2097
1936,9678,22112,28586,2087
1937,9678,22110,28588,2081
1938,9678,22112,28587,2095
1939,9678,22108,28586,2090
1940,9678,22108,28588,2099
1941,9678,22107,28590,2112
1942,9678,22110,28590,2143
1943,9678,22107,28592,2163
1944,5689,22109,28597,2186
1945,5689,22105,28596,2192
1946,5689,22110,28600,2218
1947,5689,22108,28604,2225
1948,5689,22112,28604,2213
1949,5689,22110,28603,2192
1950,5689,22113,28605,2193
1951,7498,22108,28603,2253
1952,7498,22102,28604,2298
1953,7498,22104,28587,2335
1954,7498,22095,28561,2363
1955,7498,22086,28535,2369
1956,7498,22079,28512,2369
1957,7498,22072,28489,2347
1958,7498,22069,28477,2317
1959,7498,22063,28468,2261
1960,7498,22064,28462,2203
1961,7498,22065,28461,2166
1962,7498,22069,28465,2130
1963,7498,22067,28462,2103
1964,5930,22067,28468,2107
1965,5930,22070,28473,2119
1966,5930,22071,28475,2066
1967,5930,22075,28475,2066
1968,5930,22072,28474,2064
1969,5930,22073,28478,2079
1970,31077,22076,28482,2064
1971,31077,22075,28482,2037
1972,31077,22071,28484,2032
1973,31077,22073,28486,2000
1974,31077,22076,28484,1985
1975,31077,22070,28490,1983
1976,31077,22075,28489,1991
1977,31077,22078,28494,1968
1978,31077,22076,28502,1968
1979,31077,22077,28505,1987
1980,31077,22075,28507,1995
1981,31077,22076,28513,2009
1982,31077,22078,28515,2062
1983,-9153,22078,28516,2061
1984,-9153,22080,28521,2065
1985,-9153,22080,28523,2091
1986,-9153,22084,28523,2082
1987,-9153,22081,28521,2078
1988,-9153,22081,28527,2071
1989,23593,22082,28529,2027
1990,23593,22084,28532,2027
1991,23593,22082,28529,2065
1992,23593,22083,28533,2038
1993,23593,22080,28536,2026
1994,23593,22085,28536,2059
1995,23593,22088,28542,2015
1996,23593,22087,28543,1936
1997,23593,22090,28549,1887
1998,23593,22096,28557,1879
1999,23593,22100,28563,1874
2000,23593,22099,28568,1869
2001,23593,22100,28575,1856
2002,-29620,22105,28580,1835
2003,-29620,22108,28587,1826
2004,-29620,22116,28595,1813
2005,-29620,22116,28604,1737
2006,-29620,22115,28609,1661
2007,-29620,22117,28615,1594
2008,-6360,22120,28619,1645
2009,-6360,22118,28622,1995
2010,-6360,22118,28627,3281
2011,-6360,22119,28630,2609
2012,-6360,22120,28630,1687
2013,-6360,22120,28633,1353
2014,-6360,22118,28634,1327
2015,-6360,22118,28634,1390
2016,-6360,22118,28634,1371
2017,-6360,22115,28636,1370
2018,-6360,22113,28634,1363
2019,-6360,22120,28636,1392
2020,-6360,22113,28640,1417
2021,22264,22115,28637,1402
2022,22264,22112,28643,1423
2023,22264,22084,28532,1401
2024,22264,22113,28645,1429
2025,22264,22116,28649,1421
2026,22264,22119,28652,1406
2027,22264,22117,28659,1424
2028,-17541,22115,28661,1457
2029,-17541,22117,28662,1479
2030,-17541,22118,28664,1509
2031,-17541,22114,28660,1525
2032,-17541,22114,28649,1590
2033,-17541,22107,28621,1600
2034,-17541,22099,28600,1584
2035,-17541,22093,28570,1613
2036,-17541,22088,28552,1579
2037,-17541,22084,28535,1509
2038,-17541,22079,28524,1424
2039,-17541,22076,28522,1349
2040,-2945,22076,28512,1271
2041,-2945,22077,28512,1227
2042,-2945,22079,28514,1199
2043,-2945,22075,28513,1178
2044,-2945,22078,28513,1168
2045,-2945,22071,28512,1155
2046,-2945,22075,28511,1133
2047,-3818,22073,28510,1104
2048,-3818,22071,28514,1072
2049,-3818,22069,28516,1046
2050,-3818,22072,28515,999
2051,-3818,22072,28515,959
2052,-3818,22071,28511,909
2053,-3818,22073,28514,855
2054,-3818,22072,28518,799
2055,-3818,22073,28521,781
2056,-3818,22073,28526,734
2057,-3818,22078,28534,688
2058,-3818,22077,28533,644
2059,-3818,22083,28545,589
2060,-23020,22084,28553,530
2061,-23020,22085,28556,507
2062,-23020,22087,28561,466
2063,-23020,22086,28568,402
2064,-23020,22092,28572,368
2065,-23020,22088,28574,322
2066,13554,22088,28575,306
2067,13554,22085,28577,293
2068,13554,22084,28575,215
2069,13554,22087,28578,207
2070,13554,22087,28578,180
2071,13554,22088,28576,206
2072,13554,22086,28571,171
2073,13554,22083,28574,126
2074,13554,22084,28573,27
2075,13554,22082,28574,69
2076,13554,22080,28571,64
2077,13554,22084,28574,80
2078,13554,22080,28577,65
2079,-6969,22080,28576,70
2080,-6969,22080,28581,45
2081,-6969,22083,28588,21
2082,-6969,22085,28585,16
2083,-6969,22085,28596,0
2084,-6969,22085,28594,48
2085,7042,22084,28597,55
2086,7042,22088,28605,39
2087,7042,22087,28611,41
2088,7042,22092,28613,14
2089,7042,22090,28618,0
2090,7042,22089,28620,0
2091,7042,22086,28617,98
2092,7042,22087,28620,511
2093,7042,22090,28624,1954
2094,7042,22090,28629,1382
2095,7042,22091,28631,490
2096,7042,22091,28634,176
2097,7042,22087,28640,158
2098,-11576,22092,28636,171
2099,-11576,22091,28636,192
2100,-11576,22086,28638,228
2101,-11576,22088,28638,226
2102,-11576,22085,28640,227
2103,-11576,22087,28646,233
2104,-19590,22087,28649,270
2105,-19590,22086,28653,283
2106,-19590,22092,28656,286
2107,-19590,22089,28658,307
2108,-19590,22090,28657,304
2109,-19590,22088,28658,331
2110,-19590,22088,28656,354
2111,-19590,22088,28659,381
2112,-19590,22083,28657,385
2113,-19590,22085,28654,462
2114,-19590,22082,28644,487
2115,-19590,22076,28630,523
2116,-19590,22069,28601,586
2117,-25889,22057,28567,665
2118,-25889,22052,28542,689
2119,-25889,22040,28513,706
2120,-25889,22037,28495,670
2121,-25889,22028,28487,640
2122,-25889,22027,28476,624
2123,-25889,22020,28472,631
2124,-11200,22019,28465,655
2125,-11200,22014,28461,631
2126,-11200,22014,28458,659
2127,-11200,22011,28460,692
2128,-11200,22011,28463,752
2129,-11200,22013,28463,882
2130,-11200,22011,28461,976
2131,-11200,22008,28465,1021
2132,-11200,22011,28465,1095
2133,-11200,22005,28459,1127
2134,-11200,22002,28459,1130
2135,-11200,22003,28463,1119
2136,-4173,22002,28460,1136
2137,-4173,22002,28462,1152
2138,-4173,22002,28464,1168
2139,-4173,22002,28470,1196
2140,-4173,22005,28479,1219
2141,-4173,22001,28481,1229
2142,-4173,22001,28485,1264
2143,3843,21994,28489,1327
2144,3843,21995,28489,1295
2145,3843,21995,28491,1333
2146,3843,21991,28489,1267
2147,3843,21986,28488,1360
2148,3843,21982,28488,1245
2149,3843,21981,28492,1387
2150,3843,21982,28489,1409
2151,3843,21976,28488,1405
2152,3843,21975,28490,1387
2153,3843,21973,28493,1360
2154,3843,21974,28492,1281
2155,3843,21976,28491,1281
2156,10585,21971,28492,1267
2157,10585,21973,28493,1293
2158,10585,21972,28494,1283
2159,10585,21970,28497,1350
2160,10585,21969,28501,1366
2161,10585,21970,28502,1350
2162,11233,21968,28505,1349
2163,11233,21965,28507,1392
2164,11233,21963,28510,1428
2165,11233,21963,28509,1425
2166,11233,21963,28509,1454
2167,11233,21969,28511,1477
2168,11233,21964,28517,1478
2169,11233,21966,28516,1474
2170,11233,21972,28523,1465
2171,11233,21968,28527,1482
2172,11233,21968,28528,1487
2173,11233,21971,28530,1629
2174,11233,21970,28533,2064
2175,3697,21969,28537,3295
2176,3697,21968,28533,2704
2177,3697,21961,28532,1937
2178,3697,21963,28535,1662
2179,3697,21963,28540,1631
2180,3697,21965,28539,1686
2181,1462,21961,28543,1762
2182,1462,21962,28545,1813
2183,1462,21964,28541,1830
2184,1462,21962,28541,1863
2185,1462,21962,28544,1879
2186,1462,21960,28538,1903
2187,1462,21960,28542,1930
2188,1462,21960,28545,1994
2189,1462,21959,28547,2064
2190,1462,21960,28546,2096
2191,1462,21962,28549,2111
2192,1462,21961,28549,2181
2193,1462,21961,28552,2242
2194,4280,21959,28552,2271
2195,4280,21958,28550,2323
2196,4280,21963,28554,2352
2197,4280,21973,28556,2331
2198,4280,21969,28543,2337
2199,4280,21964,28526,2387
2200,5743,21961,28509,2385
2201,5743,21966,28487,2288
2202,5743,21963,28474,2117
2203,5743,21967,28462,1966
2204,5743,21966,28453,1815
2205,5743,21970,28449,1795
2206,5743,21974,28450,1758
2207,5743,21980,28450,1829
2208,5743,21983,28458,1817
2209,5743,21988,28459,1891
2210,5743,21992,28461,1891
2211,5743,21996,28469,1919
2212,5743,22000,28474,1968
2213,9637,22004,28475,2064
2214,9637,22008,28479,2163
2215,9637,22010,28481,2281
2216,9637,22009,28482,2389
2217,9637,22008,28485,2471
2218,9637,22012,28485,2538
2219,9637,22019,28500,2559
2220,499,22025,28509,2607
2221,499,22025,28513,2631
2222,499,22027,28518,2662
2223,499,22033,28523,2715
2224,499,22031,28530,2736
2225,499,22037,28542,2752
2226,499,22038,28543,2797
2227,499,22037,28548,2835
2228,499,22038,28549,2882
2229,499,22037,28546,2928
2230,499,22038,28543,2965
2231,499,22035,28542,2992
2232,-19343,22031,28539,3007
2233,-19343,22031,28535,3034
2234,-19343,22030,28539,3053
2235,-19343,22030,28538,3089
2236,-19343,22032,28543,3151
2237,-19343,22032,28548,3216
2238,-19343,22033,28548,3209
2239,-5808,22030,28544,3182
2240,-5808,22028,28545,3170
2241,-5808,22031,28549,3216
2242,-5808,22035,28555,3218
2243,-5808,22035,28557,3157
2244,-5808,22039,28565,3179
2245,-5808,22039,28568,3213
2246,-5808,22041,28573,3206
2247,-5808,22039,28575,3168
2248,-5808,22042,28578,3162
2249,-5808,22041,28580,3152
2250,-5808,22043,28581,3184
2251,-5808,22039,28583,3361
2252,4928,22042,28587,4049
2253,4928,22042,28592,4095
2254,4928,22041,28594,4095
2255,4928,22042,28596,4095
2256,4928,22037,28598,3509
2257,4928,22040,28603,2897
2258,29168,22038,28604,3003
2259,29168,22040,28604,2958
2260,29168,22042,28603,2975
2261,29168,22043,28607,2970
2262,29168,22035,28607,2961
2263,29168,22040,28610,2928
2264,29168,22036,28613,2921
2265,29168,22040,28614,2916
2266,29168,22039,28613,2919
2267,29168,22044,28617,2913
2268,29168,22043,28621,2894
2269,29168,22041,28621,2896
2270,29168,22039,28619,2875
2271,-22247,22041,28617,2928
2272,-22247,22039,28620,2935
2273,-22247,22038,28614,2937
2274,-22247,22038,28609,2995
2275,-22247,22030,28590,3007
2276,-22247,22025,28561,2992
2277,28814,22018,28528,2967
2278,28814,22007,28501,2983
2279,28814,22003,28484,2967
2280,28814,21996,28472,2885
2281,28814,21994,28468,2790
2282,28814,22000,28471,2731
2283,28814,22000,28470,2665
2284,28814,22002,28473,2634
2285,28814,22002,28472,2590
2286,28814,22003,28469,2559
2287,28814,21999,28468,2549
2288,28814,21999,28467,2522
2289,28814,21996,28464,2469
2290,-1010,21997,28463,2479
2291,-1010,21994,28466,2490
2292,-1010,21995,28464,2459
2293,-1010,21993,28467,2448
2294,-1010,21994,28469,2441
2295,-1010,21993,28465,2448
2296,4675,21994,28472,2446
2297,4675,21996,28471,2406
2298,4675,21995,28470,2403
2299,4675,22000,28477,2408
2300,4675,21997,28481,2474
2301,4675,22001,28485,2478
2302,4675,22002,28487,2480
2303,4675,21997,28494,2529
2304,4675,22003,28495,2701
2305,4675,21999,28495,2633
2306,4675,22005,28496,2643
2307,4675,22002,28500,2653
2308,4675,22003,28500,2656
2309,-27086,22004,28502,2653
2310,-27086,22004,28500,2602
2311,-27086,22004,28501,2559
2312,-27086,22003,28507,2538
2313,-27086,22005,28503,2513
2314,-27086,22002,28507,2507
2315,-27086,22003,28509,2493
2316,-13804,22004,28507,2485
2317,-13804,22005,28514,2451
2318,-13804,22005,28514,2447
2319,-13804,22005,28515,2485
2320,-13804,22005,28516,2523
2321,-13804,22007,28519,2498
2322,-13804,22007,28522,2427
2323,-13804,22006,28523,2394
2324,-13804,22006,28527,2357
2325,-13804,22005,28529,2369
2326,-13804,21993,28467,2368
2327,-13804,22011,28538,2362
2328,-18312,22010,28541,2391
2329,-18312,22011,28548,2431
2330,-18312,22009,28552,2434
2331,-18312,22009,28557,2450
2332,-18312,22009,28561,2427
2333,-18312,22011,28561,2389
2334,-18312,22009,28561,2448
2335,-16477,22009,28567,3015
2336,-16477,22006,28566,4095
2337,-16477,22006,28570,4001
2338,-16477,22006,28569,2559
2339,-16477,22008,28568,2170
2340,-16477,22012,28578,2209
2341,-16477,22010,28581,2163
2342,-16477,22012,28586,2112
2343,-16477,22011,28582,2081
2344,-16477,22015,28587,2064
2345,-16477,22016,28588,2064
2346,-16477,22014,28592,2032
2347,-16477,22014,28595,2017
2348,-11004,22016,28598,2033
2349,-11004,22015,28600,2015
2350,-11004,22016,28601,1969
2351,-11004,22012,28603,1959
2352,-11004,22014,28602,1903
2353,-11004,22014,28605,1901
2354,-5579,22012,28607,1908
2355,-5579,22015,28605,1934
2356,-5579,22014,28609,1913
2357,-5579,22007,28597,1943
2358,-5579,22002,28578,1958
2359,-5579,21997,28548,1925
2360,-5579,21990,28512,1918
2361,-5579,21979,28491,1923
2362,-5579,21976,28473,1891
2363,-5579,21967,28455,1827
2364,-5579,21964,28447,1793
2365,-5579,21963,28442,1747
2366,-5579,21962,28438,1712
2367,5866,21964,28434,1684
2368,5866,21964,28435,1511
2369,5866,21964,28438,1631
2370,5866,21961,28440,1588
2371,5866,21965,28445,1611
2372,5866,21966,28446,1622
2373,3831,21967,28457,1535
2374,3831,21969,28456,1503
2375,3831,21971,28452,1447
2376,3831,21972,28459,1401
2377,3831,21974,28463,1402
2378,3831,21979,28465,1408
2379,3831,21973,28463,1381
2380,3831,21978,28466,1403
2381,3831,21974,28471,1427
2382,3831,21976,28470,1431
2383,3831,21975,28472,1491
2384,3831,21978,28478,1459
2385,3831,21979,28477,1490
2386,5716,21977,28485,1535
2387,5716,21980,28489,1563
2388,5716,21984,28490,1507
2389,5716,21980,28494,1593
2390,5716,21981,28493,1515
2391,5716,21981,28495,1600
2392,6144,21982,28497,1574
2393,6144,21981,28495,1623
2394,6144,21984,28501,1575
2395,6144,21977,28501,1648
2396,6144,21982,28496,1642
2397,6144,21977,28499,1742
2398,6144,21978,28491,1767
2399,6144,21975,28492,1821
2400,6144,21980,28496,1827
2401,6144,21979,28493,1926
2402,6144,21975,28493,1972
2403,6144,21974,28493,1970
2404,6144,21971,28497,1934
2405,6948,21975,28498,1939
2406,6948,21976,28498,1937
2407,6948,21974,28504,1959
2408,6948,21972,28509,1965
2409,6948,21975,28513,1955
2410,6948,21974,28512,1951
2411,6948,21970,28517,1967
2412,6926,21974,28520,1921
2413,6926,21976,28522,1946
2414,6926,21972,28523,1917
2415,6926,21975,28526,2051
2416,6926,21973,28526,2229
2417,6926,21977,28531,3685
2418,6926,21976,28535,3519
2419,6926,21974,28535,2470
2420,6926,21976,28537,2025
2421,6926,21976,28535,1917
2422,6926,21976,28540,1967
2423,6926,21971,28544,1945
2424,-949,21975,28547,1926
2425,-949,21977,28546,1931
2426,-949,21975,28549,1951
2427,-949,21979,28554,1960
2428,-949,21975,28558,1954
2429,-949,21978,28558,1981
2430,-949,21976,28558,2003
2431,1153,21974,28558,2026
2432,1153,21974,28563,2007
2433,1153,21975,28564,2009
2434,1153,21975,28567,2021
2435,1153,21978,28572,2015
2436,1153,21977,28574,1866
2437,1153,21982,28571,1999
2438,1153,21978,28566,2008
2439,1153,21971,28547,2019
2440,1153,21963,28519,2028
2441,1153,21958,28492,2014
2442,1153,21947,28466,1985
2443,1153,21943,28452,1968
2444,-12,21941,28436,1903
2445,-12,21936,28424,1801
2446,-12,21935,28425,1701
2447,-12,21938,28421,1660
2448,-12,21935,28421,1642
2449,-12,21935,28424,1604
2450,3774,21935,28427,1575
2451,3774,21937,28427,1558
2452,3774,21936,28429,1467
2453,3774,21937,28428,1535
2454,3774,21937,28430,1515
2455,3774,21938,28434,1504
2456,3774,21938,28435,1488
2457,3774,21940,28435,1442
2458,3774,21941,28440,1426
2459,3774,21939,28441,1442
2460,3774,21944,28443,1343
2461,3774,21942,28445,1393
2462,3774,21944,28445,1389
2463,-3004,21945,28449,1398
2464,-3004,21951,28453,1391
2465,-3004,21946,28460,1343
2466,-3004,21948,28459,1323
2467,-3004,21948,28472,1285
2468,-3004,21951,28472,1303
2469,27478,21949,28474,1310
2470,27478,21951,28475,1301
2471,27478,21949,28473,1311
2472,27478,21948,28475,1307
2473,27478,21948,28475,1282
2474,27478,21949,28473,1295
2475,27478,21947,28471,1287
2476,27478,21944,28471,1301
2477,27478,21951,28477,1311
2478,27478,21949,28477,1309
2479,27478,21948,28476,1296
2480,27478,21949,28480,1282
2481,27478,21951,28485,1341
2482,15490,21950,28488,1360
2483,15490,21948,28491,1371
2484,15490,21949,28494,1381
2485,15490,21954,28500,1363
2486,15490,21953,28506,1348
2487,15490,21955,28510,1335
2488,-22377,21957,28517,1318
2489,-22377,21962,28522,1293
2490,-22377,21958,28528,1269
2491,-22377,21964,28530,1273
2492,-22377,21962,28537,1274
2493,-22377,21964,28544,1250
2494,-22377,21969,28548,1259
2495,-22377,21965,28551,1312
2496,-22377,21968,28556,1849
2497,-22377,21967,28562,3036
2498,-22377,21972,28565,2299
2499,-22377,21969,28569,1440
2500,-22377,21971,28575,1136
2501,-4386,21974,28575,1171
2502,-4386,21974,28574,1205
2503,-4386,21972,28578,1212
2504,-4386,21971,28580,1241
2505,-4386,21974,28582,1246
2506,-4386,21972,28586,1232
2507,-4386,21970,28592,1239
2508,24541,21975,28590,1234
2509,24541,21974,28594,1246
2510,24541,21976,28596,1264
2511,24541,21975,28598,1324
2512,24541,21972,28595,1371
2513,24541,21974,28599,1387
2514,24541,21978,28606,1452
2515,24541,21979,28609,1504
2516,24541,21980,28610,1487
2517,24541,21972,28608,1447
2518,24541,21974,28601,1468
2519,24541,21969,28590,1458
2520,4555,21961,28559,1459
2521,4555,21955,28528,1473
2522,4555,21945,28496,1410
2523,4555,21941,28480,1456
2524,4555,21939,28468,1360
2525,4555,21935,28460,1392
2526,4555,21930,28453,1345
2527,11211,21933,28452,1379
2528,11211,21929,28451,1403
2529,11211,21930,28451,1407
2530,11211,21930,28450,1439
2531,11211,21929,28449,1486
2532,11211,21930,28447,1552
2533,11211,21929,28447,1605
2534,11211,21931,28449,1625
2535,11211,21929,28449,1643
2536,11211,21932,28451,1653
2537,11211,21926,28452,1659
2538,11211,21927,28445,1667
2539,11211,21927,28448,1661
2540,28863,21927,28450,1681
2541,28863,21929,28448,1678
2542,28863,21927,28457,1726
2543,28863,21928,28460,1719
2544,28863,21930,28463,1722
2545,28863,21931,28470,1714
2546,-25760,21934,28477,1729
2547,-25760,21936,28480,1712
2548,-25760,21937,28488,1748
2549,-25760,21936,28491,1764
2550,-25760,21939,28492,1776
2551,-25760,21938,28494,1776
2552,-25760,21939,28495,1806
2553,-25760,21935,28497,1817
2554,-25760,21938,28502,1791
2555,-25760,21936,28498,1791
2556,-25760,21934,28500,1757
2557,-25760,21934,28499,1712
2558,-25760,21937,28503,1700
2559,3878,21936,28506,1681
2560,3878,21933,28501,1690
2561,3878,21930,28503,1680
2562,3878,21936,28506,1623
2563,3878,21932,28511,1645
2564,3878,21933,28514,1680
2565,-14,21932,28517,1677
2566,-14,21934,28523,1657
2567,-14,21934,28524,1645
2568,-14,21936,28530,1631
2569,-14,21935,28527,1618
2570,-14,21932,28528,1601
2571,-14,21929,28525,1597
2572,-14,21925,28527,1591
2573,-14,21926,28528,1617
2574,-14,21922,28524,1623
2575,-14,21921,28527,1584
2576,-14,21919,28529,1533
2577,-14,21919,28524,1443
2578,-27467,21916,28526,1509
2579,-27467,21911,28526,1584
2580,-27467,21912,28524,2783
2581,-27467,21913,28526,2998
2582,-27467,21911,28528,1923
2583,-27467,21908,28524,1377
2584,-11870,21906,28530,1202
2585,-11870,21905,28529,1199
2586,-11870,21900,28523,1159
2587,-11870,21891,28516,1152
2588,-11870,21889,28518,1081
2589,-11870,21893,28520,931
2590,-11870,21889,28518,871
2591,-11870,21885,28513,835
2592,-11870,21886,28513,814
2593,-11870,21883,28515,845
2594,-11870,21880,28518,910
2595,-11870,21882,28520,951
2596,-11870,21883,28523,1045
2597,-10027,21881,28524,1126
2598,-10027,21881,28523,1237
2599,-10027,21884,28526,1340
2600,-10027,21882,28526,1459
2601,-10027,21884,28522,1603
2602,-10027,21878,28510,1731
2603,-10027,21874,28494,1852
2604,408,21867,28467,1923
2605,408,21861,28440,2045
2606,408,21854,28416,2133
2607,408,21850,28396,2233
2608,408,21844,28388,2251
2609,408,21838,28379,2301
2610,408,21837,28380,2329
2611,408,21837,28379,2366
2612,408,21838,28375,2400
2613,408,21833,28376,2448
2614,408,21830,28373,2507
2615,408,21833,28379,2595
2616,-2029,21835,28380,2646
2617,-2029,21834,28380,2710
2618,-2029,21834,28384,2790
2619,-2029,21835,28382,2861
2620,-2029,21838,28387,2970
2621,-2029,21837,28391,3052
2622,-2029,21843,28393,3125
2623,-2151,21841,28398,3184
2624,-2151,21845,28392,3247
2625,-2151,21843,28402,3360
2626,-2151,21843,28402,3408
2627,-2151,21843,28404,3449
2628,-2151,21842,28405,3505
2629,-2151,21846,28409,3549
2630,-2151,21842,28411,3619
2631,-2151,21842,28417,3696
2632,-2151,21843,28418,3754
2633,-2151,21839,28424,3792
2634,-2151,21884,28522,3819
2635,-2151,21841,28431,3872
2636,664,21840,28429,3898
2637,664,21839,28430,3938
2638,664,21840,28433,4016
2639,664,21838,28433,4013
2640,664,21838,28437,3968
2641,664,21841,28439,3920
2642,8900,21841,28443,3935
2643,8900,21846,28442,4065
2644,8900,21844,28441,4095
2645,8900,21849,28449,4067
2646,8900,21850,28453,4033
2647,8900,21853,28459,4005
2648,8900,21855,28463,4027
2649,8900,21858,28472,3899
2650,8900,21864,28476,3842
2651,8900,21868,28480,3873
2652,8900,21872,28488,3810
2653,8900,21874,28493,3775
2654,8900,21879,28503,3719
2655,8760,21886,28506,3664
2656,8760,21884,28510,3564
2657,8760,21888,28517,3727
2658,8760,21891,28521,3845
2659,8760,21895,28525,4095
2660,8760,21894,28529,4095
2661,7387,21896,28534,4095
2662,7387,21895,28538,4095
2663,7387,21900,28539,3503
2664,7387,21900,28539,3119
2665,7387,21898,28545,3162
2666,7387,21898,28547,3118
2667,7387,21900,28548,3104
2668,7387,21904,28552,3090
2669,7387,21902,28558,3088
2670,7387,21909,28566,3054
2671,7387,21913,28568,3046
2672,7387,21916,28578,3071
2673,7387,21920,28580,3054
2674,14395,21922,28580,3051
2675,14395,21925,28584,3055
2676,14395,21926,28590,2997
2677,14395,21926,28593,2991
2678,14395,21927,28592,2958
2679,14395,21925,28597,2894
2680,9421,21928,28594,2823
2681,9421,21927,28591,2751
2682,9421,21923,28575,2670
2683,9421,21917,28555,2619
2684,9421,21910,28532,2544
2685,9421,21905,28504,2475
2686,9421,21901,28486,2380
2687,9421,21892,28472,2259
2688,9421,21885,28459,2139
2689,9421,21886,28450,2107
2690,9421,21880,28447,2066
2691,9421,21882,28444,2034
2692,9421,21881,28445,2009
2693,23211,21879,28444,2010
2694,23211,21878,28448,1984
2695,23211,21877,28451,1993
2696,23211,21877,28452,1973
2697,23211,21875,28454,1927
2698,23211,21876,28455,1914
2699,23211,21878,28460,1910
2700,28921,21877,28459,1922
2701,28921,21877,28462,1905
2702,28921,21878,28461,1888
2703,28921,21879,28464,1900
2704,28921,21878,28469,1856
2705,28921,21883,28478,1859
2706,28921,21882,28484,1859
2707,28921,21887,28494,1878
2708,28921,21892,28500,1886
2709,28921,21894,28513,1883
2710,28921,21895,28516,1859
2711,28921,21901,28523,1866
2712,-2588,21898,28524,1861
2713,-2588,21902,28529,1840
2714,-2588,21902,28529,1857
2715,-2588,21901,28536,1871
2716,-2588,21901,28537,1856
2717,-2588,21904,28540,1818
2718,-2588,21905,28539,1781
2719,3609,21905,28541,1735
2720,3609,21905,28541,1689
2721,3609,21907,28543,1653
2722,3609,21913,28543,1647
2723,3609,21913,28547,1661
2724,3609,21912,28553,1680
2725,3609,21911,28556,1648
2726,3609,21915,28560,1584
2727,3609,21919,28562,1514
2728,3609,21917,28566,1353
2729,3609,21919,28568,1408
2730,3609,21921,28572,1395
2731,3609,21916,28574,1375
2732,-2165,21917,28577,1352
2733,-2165,21915,28578,1335
2734,-2165,21916,28578,1314
2735,-2165,21916,28579,1300
2736,-2165,21914,28582,1283
2737,-2165,21916,28581,1289
2738,-1844,21915,28582,1357
2739,-1844,21914,28583,2006
2740,-1844,21913,28586,3088
2741,-1844,21914,28587,2212
2742,-1844,21915,28589,1386
2743,-1844,21914,28593,1089
2744,-1844,21916,28596,1110
2745,-1844,21916,28595,1104
2746,-1844,21914,28599,1079
2747,-1844,21917,28603,1066
2748,-1844,21918,28602,1083
2749,-1844,21917,28601,1119
2750,-1844,21919,28605,1136
2751,10738,21919,28608,1143
2752,10738,21921,28615,1145
2753,10738,21922,28613,1152
2754,10738,21918,28616,1209
2755,10738,21919,28618,1259
2756,10738,21921,28615,1297
2757,-15755,21919,28620,1338
2758,-15755,21922,28624,1375
2759,-15755,21922,28620,1425
2760,-15755,21924,28621,1471
2761,-15755,21922,28613,1533
2762,-15755,21920,28598,1606
2763,-15755,21916,28579,1663
2764,-15755,21915,28554,1697
2765,-15755,21908,28541,1703
2766,-15755,21908,28522,1675
2767,-15755,21904,28513,1613
2768,-15755,21905,28504,1531
2769,-15755,21904,28502,1475
2770,-21716,21900,28502,1421
2771,-21716,21903,28499,1381
2772,-21716,21902,28500,1371
2773,-21716,21902,28505,1374
2774,-21716,21904,28506,1360
2775,-21716,21907,28513,1363
2776,-8896,21911,28517,1367
2777,-8896,21911,28517,1383
2778,-8896,21908,28517,1381
2779,-8896,21912,28523,1365
2780,-8896,21914,28530,1389
2781,-8896,21916,28534,1422
2782,-8896,21919,28537,1417
2783,-8896,21919,28538,1440
2784,-8896,21922,28542,1451
2785,-8896,21921,28615,1456
2786,-8896,21923,28552,1477
2787,-8896,21925,28554,1509
2788,-8896,21925,28563,1520
2789,-15360,21927,28571,1506
2790,-15360,21927,28578,1515
2791,-15360,21931,28582,1510
2792,-15360,21930,28588,1503
2793,-15360,21931,28587,1514
2794,-15360,21928,28593,1517
2795,-15360,21928,28594,1493
2796,-20238,21925,28590,1489
2797,-20238,21929,28590,1494
2798,-20238,21923,28588,1469
2799,-20238,21925,28589,1494
2800,-20238,21920,28589,1475
2801,-20238,21923,28584,1471
2802,-20238,21919,28589,1472
2803,-20238,21920,28586,1477
2804,-20238,21922,28589,1485
2805,-20238,21922,28592,1511
2806,-20238,21922,28593,1555
2807,-20238,21924,28599,1584
2808,-9786,21924,28602,1561
2809,-9786,21924,28605,1569
2810,-9786,21921,28603,1566
2811,-9786,21922,28603,1584
2812,-9786,21923,28609,1593
2813,-9786,21925,28608,1616
2814,-9786,21922,28611,1619
2815,754,21922,28611,1642
2816,754,21921,28609,1625
2817,754,21917,28607,1627
2818,754,21920,28610,1637
2819,754,21917,28611,1594
2820,754,21916,28615,1677
2821,754,21918,28615,1767
2822,754,21917,28619,2878
2823,754,21920,28624,3223
2824,754,21920,28621,2201
2825,754,21917,28624,1680
2826,754,21917,28627,1513
2827,754,21923,28630,1558
2828,6092,21921,28631,1527
2829,6092,21921,28630,1535
2830,6092,21921,28637,1487
2831,6092,21923,28635,1557
2832,6092,21922,28637,1505
2833,6092,21923,28636,1578
2834,4390,21922,28639,1553
2835,4390,21922,28642,1621
2836,4390,21923,28645,1589
2837,4390,21923,28644,1622
2838,4390,21921,28643,1598
2839,4390,21925,28640,1647
2840,4390,21923,28641,1649
2841,4390,21922,28642,1706
2842,4390,21919,28638,1696
2843,4390,21920,28637,1746
2844,4390,21917,28628,1741
2845,4390,21914,28618,1792
2846,4390,21904,28593,1799
2847,1885,21899,28568,1877
2848,1885,21893,28545,1882
2849,1885,21889,28525,1838
2850,1885,21885,28514,1755
2851,1885,21886,28504,1710
2852,1885,21883,28500,1634
2853,5747,21884,28496,1617
2854,5747,21887,28498,1584
2855,5747,21887,28501,1614
2856,5747,21887,28504,1526
2857,5747,21886,28506,1590
2858,5747,21887,28512,1441
2859,5747,21885,28515,1647
2860,5747,21887,28514,1646
2861,5747,21887,28517,1711
2862,5747,21890,28522,1650
2863,5747,21889,28523,1726
2864,5747,21888,28523,1585
2865,5747,21889,28525,1723
2866,4717,21890,28529,1726
2867,4717,21889,28531,1798
2868,4717,21894,28541,1725
2869,4717,21893,28546,1799
2870,4717,21895,28550,1798
2871,4717,21896,28556,1850
2872,6136,21904,28560,1791
2873,6136,21900,28568,1879
2874,6136,21902,28572,1851
2875,6136,21901,28572,1875
2876,6136,21899,28572,1631
2877,6136,21898,28575,1903
2878,6136,21900,28571,1888
2879,6136,21898,28568,1857
2880,6136,21897,28572,1872
2881,6136,21896,28568,1897
2882,6136,21896,28566,1946
2883,6136,21892,28567,1990
2884,6136,21890,28567,2043
2885,1324,21890,28568,1975
2886,1324,21889,28571,1973
2887,1324,21893,28571,1966
2888,1324,21895,28576,1968
2889,1324,21897,28578,1957
2890,1324,21893,28576,1950
2891,1324,21894,28579,1949
2892,3005,21894,28583,1945
2893,3005,21894,28586,1934
2894,3005,21893,28588,1930
2895,3005,21895,28591,1907
2896,3005,21901,28595,1918
2897,3005,21899,28598,2096
2898,3005,21901,28600,3100
2899,3005,21899,28604,3481
2900,3005,21895,28605,2551
2901,3005,21899,28606,2029
2902,3005,21898,28608,1809
2903,3005,21896,28611,1849
2904,-1119,21896,28612,1679
2905,-1119,21895,28615,1856
2906,-1119,21899,28614,1852
2907,-1119,21897,28617,1841
2908,-1119,21898,28617,1843
2909,-1119,21900,28619,1851
2910,-1119,21900,28623,1821
2911,3425,21903,28622,1806
2912,3425,21909,28627,1741
2913,3425,21910,28633,1787
2914,3425,21913,28635,1711
2915,3425,21911,28636,1776
2916,3425,21914,28640,1791
2917,3425,21915,28641,1827
2918,3425,21912,28639,1871
2919,3425,21912,28634,1913
2920,3425,21910,28625,1983
2921,3425,21911,28612,2013
2922,3425,21901,28597,2055
2923,3425,21899,28578,2066
2924,-16809,21894,28557,2080
2925,-16809,21889,28544,2059
2926,-16809,21889,28530,1991
2927,-16809,21882,28519,1938
2928,-16809,21882,28519,1872
2929,-16809,21878,28509,1834
2930,11007,21877,28508,1795
2931,11007,21878,28512,1771
2932,11007,21876,28511,1755
2933,11007,21878,28512,1763
2934,11007,21881,28520,1743
2935,11007,21879,28524,1729
2936,11007,21881,28527,1727
2937,11007,21885,28530,1727
2938,11007,21882,28532,1696
2939,11007,21885,28535,1698
2940,11007,21886,28545,1711
2941,11007,21891,28551,1695
2942,11007,21890,28557,1693
2943,-21971,21894,28566,1691
2944,-21971,21899,28574,1675
2945,-21971,21899,28578,1650
2946,-21971,21902,28584,1654
2947,-21971,21904,28591,1660
2948,-21971,21906,28595,1699
2949,-26968,21907,28600,1689
2950,-26968,21907,28605,1710
2951,-26968,21907,28611,1719
2952,-26968,21911,28611,1743
2953,-26968,21914,28614,1762
2954,-26968,21910,28615,1770
2955,-26968,21913,28617,1770
2956,-26968,21912,28616,1767
2957,-26968,21912,28616,1749
2958,-26968,21907,28617,1758
2959,-26968,21912,28616,1771
2960,-26968,21909,28618,1828
2961,-26968,21915,28619,1825
2962,-29630,21916,28625,1808
2963,-29630,21916,28630,1746
2964,-29630,21914,28632,1712
2965,-29630,21919,28632,1680
2966,-29630,21918,28633,1657
2967,-29630,21919,28628,1642
2968,-25331,21919,28636,1651
2969,-25331,21917,28635,1629
2970,-25331,21914,28638,1623
2971,-25331,21914,28638,1646
2972,-25331,21913,28642,1643
2973,-25331,21917,28643,1609
2974,-25331,21915,28644,1733
2975,-25331,21919,28650,1954
2976,-25331,21918,28652,3417
2977,-25331,21920,28655,3168
2978,-25331,21920,28660,2032
2979,-25331,21919,28661,1582
2980,-25331,21922,28665,1510
2981,-32007,21922,28671,1513
2982,-32007,21925,28671,1489
2983,-32007,21927,28674,1485
2984,-32007,21930,28678,1487
2985,-32007,21929,28676,1499
2986,-32007,21928,28677,1509
2987,-32007,21931,28680,1525
2988,14619,21933,28687,1569
2989,14619,21934,28685,1535
2990,14619,21934,28695,1570
2991,14619,21942,28697,1563
2992,14619,21941,28697,1584
2993,14619,21938,28699,1583
2994,14619,21940,28700,1603
2995,14619,21937,28701,1646
2996,14619,21940,28699,1664
2997,14619,21941,28694,1712
2998,14619,21935,28686,1758
2999,14619,21934,28673,1775
3000,-24275,21934,28653,1809
3001,-24275,21923,28626,1815
3002,-24275,21920,28610,1786
3003,-24275,21918,28594,1741
3004,-24275,21915,28586,1649
3005,-24275,21914,28580,1598
3006,-24275,21914,28575,1521
3007,-26996,21914,28579,1497
3008,-26996,21919,28583,1456
3009,-26996,21923,28590,1433
3010,-26996,21922,28596,1428
3011,-26996,21927,28605,1393
3012,-26996,21928,28608,1419
3013,-26996,21930,28611,1394
3014,-26996,21931,28615,1399
3015,-26996,21935,28617,1392
3016,-26996,21932,28621,1392
3017,-26996,21933,28625,1392
3018,-26996,21934,28627,1385
3019,-26996,21936,28633,1391
3020,-14738,21939,28638,1408
3021,-14738,21945,28641,1409
3022,-14738,21942,28647,1417
3023,-14738,21941,28647,1424
3024,-14738,21946,28656,1429
3025,-14738,21950,28660,1424
3026,-11582,21949,28667,1451
3027,-11582,21948,28672,1458
3028,-11582,21951,28673,1484
3029,-11582,21950,28676,1480
3030,-11582,21952,28678,1500
3031,-11582,21949,28676,1503
3032,-11582,21946,28674,1501
3033,-11582,21944,28675,1520
3034,-11582,21945,28679,1511
3035,-11582,21944,28671,1507
3036,-11582,21942,28678,1517
3037,-11582,21942,28677,1535
3038,-11582,21942,28677,1535
3039,-18966,21944,28679,1533
3040,-18966,21941,28677,1535
3041,-18966,21942,28681,1535
3042,-18966,21938,28677,1568
3043,-18966,21942,28680,1646
3044,-18966,21942,28682,1662
3045,-18995,21939,28683,1638
3046,-18995,21942,28687,1629
3047,-18995,21942,28694,1602
3048,-18995,21946,28697,1591
3049,-18995,21947,28698,1593
3050,-18995,21948,28698,1589
3051,-18995,21944,28699,1575
3052,-18995,21944,28695,1583
3053,-18995,21943,28704,1568
3054,-18995,21944,28705,1553
3055,-18995,21945,28709,1553
3056,-18995,21944,28712,1530
3057,-18995,21947,28715,1649
3058,-11803,21944,28712,1966
3059,-11803,21946,28714,3404
3060,-11803,21946,28716,2873
3061,-11803,21947,28714,1894
3062,-11803,21944,28715,1535
3063,-11803,21947,28715,1488
3064,-2638,21941,28715,1529
3065,-2638,21945,28721,1513
3066,-2638,21946,28721,1562
3067,-2638,21949,28722,1578
3068,-2638,21952,28723,1575
3069,-2638,21948,28725,1585
3070,-2638,21949,28728,1597
3071,-2638,21949,28730,1616
3072,-2638,21951,28730,1613
3073,-2638,21949,28735,1641
3074,-2638,21954,28739,1660
3075,-2638,21955,28744,1660
3076,-2638,21954,28746,1664
3077,2856,21957,28742,1696
3078,2856,21956,28741,1696
3079,2856,21956,28741,1746
3080,2856,21955,28735,1808
3081,2856,21953,28725,1827
3082,2856,21948,28713,1769
3083,2856,21945,28700,1907
3084,3563,21942,28678,1560
3085,3563,21935,28656,1910
3086,3563,21931,28639,1859
3087,3563,21944,28705,1796
3088,3563,21925,28620,1644
3089,3563,21925,28617,1661
3090,3563,21925,28616,1622
3091,3563,21925,28618,1583
3092,3563,21927,28622,1579
3093,3563,21929,28624,1583
3094,3563,21929,28627,1510
3095,3563,21932,28631,1534
3096,1790,21931,28630,1503
3097,1790,21926,28629,1563
3098,1790,21927,28628,1515
3099,1790,21926,28629,1567
3100,1790,21929,28632,1563
3101,1790,21928,28636,1567
3102,1790,21930,28635,1581
3103,3437,21930,28638,1595
3104,3437,21933,28645,1535
3105,3437,21935,28647,1584
3106,3437,21941,28654,1602
3107,3437,21942,28663,1567
3108,3437,21941,28670,1535
3109,3437,21945,28679,1586
3110,3437,21947,28681,1515
3111,3437,21947,28683,1579
3112,3437,21945,28687,1521
3113,3437,21941,28683,1598
3114,3437,21943,28687,1605
3115,3437,21943,28684,1600
3116,4031,21938,28681,1533
3117,4031,21940,28682,1617
3118,4031,21938,28683,1607
3119,4031,21943,28682,1649
3120,4031,21941,28683,1702
3121,4031,21941,28687,1693
3122,9226,21945,28691,1590
3123,9226,21942,28688,1634
3124,9226,21939,28689,1616
3125,9226,21937,28684,1642
3126,9226,21937,28689,1663
3127,9226,21938,28688,1645
3128,9226,21939,28690,1634
3129,9226,21936,28692,1649
3130,9226,21935,28698,1579
3131,9226,21938,28701,1633
3132,9226,21938,28702,1601
3133,9226,21938,28706,1600
3134,9226,21940,28706,1713
3135,2264,21940,28707,1894
3136,2264,21939,28709,3119
3137,2264,21943,28714,2905
3138,2264,21944,28712,2017
3139,2264,21941,28717,1600
3140,2264,21941,28715,1438
3141,4279,21935,28713,1440
3142,4279,21937,28709,1367
3143,4279,21934,28712,1363
3144,4279,21935,28708,1330
3145,4279,21936,28703,1335
3146,4279,21934,28705,1264
3147,4279,21931,28707,1358
3148,4279,21932,28707,1235
3149,4279,21930,28707,1328
3150,4279,21933,28710,1296
3151,4279,21932,28711,1311
3152,4279,21934,28716,1286
3153,4279,21934,28718,1303
3154,-2786,21934,28719,1239
3155,-2786,21935,28717,1339
3156,-2786,21935,28716,1371
3157,-2786,21930,28715,1417
3158,-2786,21931,28704,1450
3159,-2786,21926,28696,1520
3160,16403,21920,28671,1533
3161,16403,21915,28650,1555
3162,16403,21903,28626,1556
3163,16403,21905,28610,1535
3164,16403,21898,28600,1472
3165,16403,21897,28588,1425
3166,16403,21893,28585,1397
3167,16403,21896,28587,1358
3168,16403,21893,28590,1357
3169,16403,21897,28593,1342
3170,16403,21894,28593,1360
3171,16403,21895,28600,1378
3172,16403,21899,28603,1402
3173,-14464,21899,28606,1401
3174,-14464,21900,28610,1393
3175,-14464,21901,28614,1407
3176,-14464,21905,28617,1411
3177,-14464,21906,28621,1419
3178,-14464,21905,28624,1428
3179,-14464,21907,28630,1412
3180,4569,21912,28632,1403
3181,4569,21914,28639,1389
3182,4569,21919,28646,1343
3183,4569,21914,28653,1386
3184,4569,21920,28656,1360
3185,4569,21921,28663,1417
3186,4569,21921,28670,1393
3187,4569,21923,28670,1429
3188,4569,21919,28675,1376
3189,4569,21919,28677,1450
3190,4569,21919,28679,1389
3191,4569,21920,28680,1427
3192,-3562,21921,28679,1408
3193,-3562,21921,28677,1471
3194,-3562,21919,28679,1488
3195,-3562,21919,28681,1499
3196,-3562,21919,28683,1490
3197,-3562,21921,28682,1503
3198,-3562,21919,28681,1568
3199,5375,21920,28683,1676
3200,5375,21922,28689,1653
3201,5375,21926,28690,1765
3202,5375,21921,28689,1742
3203,5375,21917,28692,1753
3204,5375,21924,28692,1711
3205,5375,21921,28698,1781
3206,5375,21917,28701,1792
3207,5375,21918,28700,1792
3208,5375,21920,28705,1698
3209,5375,21925,28708,1802
3210,5375,21923,28710,1771
3211,5375,21927,28714,1773
3212,9317,21926,28715,1655
3213,9317,21929,28720,1785
3214,9317,21928,28719,1878
3215,9317,21928,28725,3031
3216,9317,21932,28725,3696
3217,9317,21933,28728,2381
3218,-31898,21934,28733,1678
3219,-31898,21938,28738,1525
3220,-31898,21940,28741,1504
3221,-31898,21937,28741,1424
3222,-31898,21942,28746,1360
3223,-31898,21941,28745,1290
3224,-31898,21942,28749,1245
3225,-31898,21938,28748,1219
3226,-31898,21936,28751,1173
3227,-31898,21941,28752,1154
3228,-31898,21941,28752,1136
3229,-31898,21941,28752,1118
3230,-31898,21941,28753,1094
3231,589,21942,28757,1092
3232,589,21947,28761,1070
3233,589,21945,28760,1088
3234,589,21945,28765,1115
3235,589,21947,28759,1138
3236,589,21917,28692,1178
3237,-23658,21951,28762,1226
3238,-23658,21946,28753,1307
3239,-23658,21942,28732,1365
3240,-23658,21930,28713,1406
3241,-23658,21928,28691,1454
3242,-23658,21924,28675,1466
3243,-23658,21919,28662,1458
3244,-23658,21918,28656,1455
3245,-23658,21917,28651,1418
3246,-23658,21920,28648,1419
3247,-23658,21916,28649,1431
3248,-23658,21915,28640,1456
3249,-23658,21909,28635,1488
3250,13411,21903,28632,1506
3251,13411,21904,28630,1574
3252,13411,21901,28631,1627
3253,13411,21900,28636,1642
3254,13411,21906,28645,1669
3255,13411,21910,28643,1681
3256,7342,21908,28644,1707
3257,7342,21915,28647,1744
3258,7342,21914,28648,1751
3259,7342,21916,28656,1806
3260,7342,21922,28662,1801
3261,7342,21922,28675,1841
3262,7342,21926,28683,1870
3263,7342,21928,28689,1875
3264,7342,21934,28694,1904
3265,7342,21930,28696,1935
3266,7342,21933,28699,1977
3267,7342,21933,28702,1983
3268,7342,21935,28707,2037
3269,-13979,21935,28711,2067
3270,-13979,21936,28717,2105
3271,-13979,21938,28713,2163
3272,-13979,21932,28714,2192
3273,-13979,21930,28714,2233
3274,-13979,21930,28706,2256
3275,-13979,21931,28709,2306
3276,-15491,21929,28708,2316
3277,-15491,21929,28713,2333
3278,-15491,21929,28716,2341
3279,-15491,21931,28713,2321
3280,-15491,21926,28713,2332
3281,-15491,21928,28718,2338
3282,-15491,21925,28719,2369
3283,-15491,21926,28721,2411
3284,-15491,21933,28725,2380
3285,-15491,21933,28728,2382
3286,-15491,21940,28733,2395
3287,-15491,21940,28736,2389
3288,-21902,21940,28741,2387
3289,-21902,21935,28739,2378
3290,-21902,21939,28740,2387
3291,-21902,21941,28739,2375
3292,-21902,21936,28740,2386
3293,-21902,21940,28741,2384
3294,-21902,21939,28741,2404
3295,-27032,21937,28745,2359
3296,-27032,21941,28745,2429
3297,-27032,21936,28746,2502
3298,-27032,21937,28747,3615
3299,-27032,21936,28749,4095
3300,-27032,21937,28746,3580
3301,-27032,21935,28751,2434
3302,-27032,21937,28752,2224
3303,-27032,21937,28752,2248
3304,-27032,21938,28748,2236
3305,-27032,21933,28748,2241
3306,-27032,21932,28746,2247
3307,-27032,21932,28750,2250
3308,-18805,21932,28748,2256
3309,-18805,21933,28747,2262
3310,-18805,21932,28748,2273
3311,-18805,21932,28752,2259
3312,-18805,21930,28752,2265
3313,-18805,21931,28751,2315
3314,-2004,21930,28754,2301
3315,-2004,21930,28760,2320
3316,-2004,21931,28758,2357
3317,-2004,21934,28762,2367
3318,-2004,21932,28764,2425
3319,-2004,21930,28754,2463
3320,-2004,21929,28744,2492
3321,-2004,21924,28732,2526
3322,-2004,21918,28720,2559
3323,-2004,21916,28697,2605
3324,-2004,21909,28678,2585
3325,-2004,21908,28666,2544
3326,-2004,21901,28652,2490
3327,8848,21900,28644,2441
3328,8848,21903,28641,2352
3329,8848,21903,28640,2291
3330,8848,21900,28642,2265
3331,8848,21906,28643,2225
3332,8848,21906,28652,2224
3333,8276,21907,28653,2223
3334,8276,21908,28657,2240
3335,8276,21907,28660,2245
3336,8276,21906,28664,2242
3337,8276,21910,28670,2227
3338,8276,21911,28669,2211
3339,8276,21908,28668,2222
3340,8276,21911,28670,2213
3341,8276,21914,28673,2205
3342,8276,21911,28674,2179
3343,8276,21915,28675,2165
3344,8276,21917,28679,2175
3345,8276,21915,28685,2178
3346,14563,21913,28686,2134
3347,14563,21914,28694,2147
3348,14563,21916,28698,2112
3349,14563,21914,28702,2095
3350,14563,21915,28699,2079
3351,14563,21915,28701,2061
3352,3899,21911,28704,2006
3353,3899,21911,28703,1995
3354,3899,21912,28705,2067
3355,3899,21913,28705,1971
3356,3899,21911,28707,1921
3357,3899,21912,28706,1891
3358,3899,21912,28709,1831
3359,3899,21910,28704,1904
3360,3899,21910,28703,1872
3361,3899,21909,28702,1840
3362,3899,21907,28698,1792
3363,3899,21905,28700,1737
3364,3899,21905,28698,1623
3365,-1474,21904,28700,1671
3366,-1474,21905,28703,1632
3367,-1474,21906,28703,1568
3368,-1474,21907,28703,1515
3369,-1474,21909,28704,1490
3370,-1474,21909,28709,1456
3371,-1474,21908,28712,1367
3372,-2722,21909,28714,1342
3373,-2722,21909,28720,1442
3374,-2722,21913,28726,1695
3375,-2722,21913,28721,2798
3376,-2722,21910,28719,2337
3377,-2722,21910,28719,1573
3378,-2722,21915,28724,1163
3379,-2722,21912,28725,1041
3380,-2722,21911,28722,1040
3381,-2722,21910,28724,989
3382,-2722,21911,28726,963
3383,-2722,21910,28728,939
3384,2258,21907,28726,910
3385,2258,21911,28704,880
3386,2258,21908,28728,830
3387,2258,21909,28726,791
3388,2258,21908,28729,730
3389,2258,21906,28732,689
3390,2258,21905,28730,656
3391,2245,21909,28732,627
3392,2245,21901,28731,595
3393,2245,21906,28730,554
3394,2245,21903,28730,560
3395,2245,21907,28732,567
3396,2245,21899,28724,551
3397,2245,21902,28719,527
3398,2245,21901,28711,497
3399,2245,21892,28701,467
3400,2245,21890,28680,446
3401,2245,21886,28663,374
3402,2245,21884,28649,277
3403,2245,21883,28639,184
3404,16706,21881,28636,103
3405,16706,21885,28631,38
3406,16706,21884,28626,0
3407,16706,21881,28632,0
3408,16706,21883,28631,0
3409,16706,21883,28634,0
3410,-18039,21887,28640,0
3411,-18039,21884,28642,0
3412,-18039,21887,28645,0
3413,-18039,21887,28649,0
3414,-18039,21886,28651,0
3415,-18039,21888,28655,0
3416,-18039,21889,28655,0
3417,-18039,21889,28658,0
3418,-18039,21890,28661,0
3419,-18039,21887,28665,0
3420,-18039,21891,28669,0
3421,-18039,21891,28670,0
3422,-18039,21896,28680,0
3423,-27212,21891,28684,0
3424,-27212,21898,28690,0
3425,-27212,21897,28691,0
3426,-27212,21894,28692,0
3427,-27212,21894,28693,0
3428,-27212,21890,28692,0
3429,-1860,21888,28690,0
3430,-1860,21889,28690,0
3431,-1860,21891,28691,0
3432,-1860,21887,28693,0
3433,-1860,21886,28690,0
3434,-1860,21888,28693,0
3435,-1860,21894,28695,0
3436,-1860,21888,28690,0
3437,-1860,21890,28697,0
3438,-1860,21889,28695,0
3439,-1860,21892,28695,0
3440,-1860,21893,28694,0
3441,-1860,21892,28696,0
3442,-1112,21888,28696,0
3443,-1112,21892,28697,0
3444,-1112,21888,28695,36
3445,-1112,21888,28699,67
3446,-1112,21887,28698,56
3447,-1112,21881,28700,77
3448,9374,21882,28700,85
3449,9374,21881,28701,212
3450,9374,21889,28706,671
3451,9374,21889,28706,1962
3452,9374,21886,28705,1306
3453,9374,21884,28703,442
3454,9374,21878,28703,103
3455,9374,21879,28705,112
3456,9374,21880,28705,128
3457,9374,21879,28708,118
3458,9374,21883,28707,134
3459,9374,21879,28708,149
3460,9374,21876,28705,176
3461,1108,21879,28713,186
3462,1108,21881,28713,230
3463,1108,21884,28720,272
3464,1108,21881,28721,302
3465,1108,21888,28725,345
3466,1108,21881,28725,399
3467,1108,21884,28722,435
3468,8767,21885,28725,496
3469,8767,21885,28728,545
3470,8767,21887,28733,613
3471,8767,21891,28735,639
3472,8767,21898,28739,689
3473,8767,21902,28733,727
3474,8767,21899,28726,778
3475,8767,21900,28708,818
3476,8767,21892,28690,839
3477,8767,21893,28677,841
3478,8767,21892,28665,807
3479,8767,21891,28658,778
3480,-15035,21889,28652,770
3481,-15035,21885,28647,748
3482,-15035,21888,28645,753
3483,-15035,21885,28644,768
3484,-15035,21888,28653,801
3485,-15035,21892,28656,836
3486,-15035,21892,28666,877
3487,-5577,21899,28670,919
3488,-5577,21897,28674,978
3489,-5577,21901,28675,1039
3490,-5577,21900,28682,1088
3491,-5577,21905,28684,1159
3492,-5577,21905,28688,1194
3493,-5577,21907,28694,1262
3494,-5577,21909,28694,1296
3495,-5577,21912,28696,1360
3496,-5577,21904,28701,1367
3497,-5577,21908,28702,1407
3498,-5577,21912,28712,1424
3499,-5577,21918,28720,1482
3500,13342,21921,28727,1514
3501,13342,21924,28739,1561
3502,13342,21921,28741,1616
3503,13342,21923,28748,1664
3504,13342,21920,28745,1696
3505,13342,21922,28750,1729
3506,-11361,21921,28754,1749
3507,-11361,21925,28757,1808
3508,-11361,21924,28752,1855
3509,-11361,21924,28753,1892
3510,-11361,21923,28753,1899
3511,-11361,21919,28750,1927
3512,-11361,21918,28746,1985
3513,-11361,21914,28746,2014
3514,-11361,21917,28743,2074
3515,-11361,21919,28748,2115
3516,-11361,21917,28747,2197
3517,-11361,21919,28753,2247
3518,-11361,21917,28752,2256
3519,3842,21923,28756,2250
3520,3842,21924,28758,2253
3521,3842,21921,28762,2247
3522,3842,21922,28767,2245
3523,3842,21924,28773,2267
3524,3842,21924,28769,2279
3525,-10882,21928,28774,2256
3526,-10882,21929,28776,2242
3527,-10882,21929,28776,2211
3528,-10882,21928,28780,2195
3529,-10882,21927,28781,2134
3530,-10882,21928,28783,2181
3531,-10882,21925,28786,2282
3532,-10882,21929,28786,3727
3533,-10882,21934,28789,4095
3534,-10882,21931,28791,2640
3535,-10882,21921,28741,2000
3536,-10882,21935,28795,1848
3537,-10882,21937,28798,1868
3538,-26689,21938,28807,1844
3539,-26689,21938,28810,1795
3540,-26689,21937,28813,1809
3541,-26689,21937,28815,1825
3542,-26689,21940,28823,1831
3543,-26689,21943,28824,1842
3544,-23546,21945,28829,1889
3545,-23546,21948,28829,1922
3546,-23546,21943,28829,1952
3547,-23546,21943,28830,2011
3548,-23546,21943,28825,2047
3549,-23546,21944,28829,2097
3550,-23546,21942,28828,2158
3551,-23546,21940,28829,2224
3552,-23546,21941,28828,2288
3553,-23546,21939,28819,2346
3554,-23546,21937,28811,2427
3555,-23546,21933,28798,2499
3556,-23546,21929,28777,2544
3557,-15570,21925,28752,2559
3558,-15570,21918,28731,2605
3559,-15570,21914,28712,2605
3560,-15570,21907,28698,2554
3561,-15570,21905,28689,2523
3562,-15570,21900,28681,2513
3563,-15570,21903,28678,2469
3564,6711,21901,28674,2487
3565,6711,21902,28672,2485
3566,6711,21899,28672,2496
3567,6711,21896,28669,2512
3568,6711,21893,28664,2559
3569,6711,21892,28665,2593
3570,6711,21897,28666,2620
3571,6711,21895,28666,2617
3572,6711,21893,28667,2636
3573,6711,21895,28672,2640
3574,6711,21896,28667,2634
3575,6711,21894,28671,2669
3576,956,21894,28677,2681
3577,956,21895,28676,2684
3578,956,21897,28688,2688
3579,956,21897,28690,2687
3580,956,21901,28699,2663
3581,956,21900,28703,2674
3582,956,21900,28709,2672
3583,-6536,21900,28710,2667
3584,-6536,21902,28714,2702
3585,-6536,21904,28719,2679
3586,-6536,21907,28720,2645
3587,-6536,21908,28727,2639
3588,-6536,21911,28734,2593
3589,-6536,21916,28734,2598
3590,-6536,21918,28741,2608
3591,-6536,21921,28746,2621
3592,-6536,21921,28748,2685
3593,-6536,21925,28752,2691
3594,-6536,21924,28748,2701
3595,-6536,21924,28749,2643
3596,1265,21924,28754,2625
3597,1265,21923,28752,2615
3598,1265,21923,28751,2629
3599,1265,21924,28755,2637
3600,1265,21921,28759,2633
3601,1265,21920,28762,2655
3602,4559,21925,28764,2688
3603,4559,21928,28774,2673
3604,4559,21929,28779,2624
3605,4559,21928,28786,2555
3606,4559,21932,28792,2724
3607,4559,21933,28796,2826
3608,4559,21934,28795,4095
3609,4559,21930,28798,4095
3610,4559,21930,28799,3728
3611,4559,21927,28799,2705
3612,4559,21922,28798,2540
3613,4559,21929,28797,2559
3614,4559,21925,28796,2531
3615,3237,21922,28798,2509
3616,3237,21927,28804,2447
3617,3237,21926,28800,2425
3618,3237,21926,28806,2410
3619,3237,21927,28813,2371
3620,3237,21934,28818,2295
3621,3523,21933,28821,2230
3622,3523,21934,28826,2215
3623,3523,21937,28826,2151
3624,3523,21937,28828,2102
3625,3523,21931,28826,2066
3626,3523,21932,28821,2035
3627,3523,21931,28819,2070
3628,3523,21930,28814,2119
3629,3523,21928,28808,2081
3630,3523,21924,28798,2068
3631,3523,21920,28778,2085
3632,3523,21913,28753,2096
3633,3523,21902,28731,2102
3634,7495,21897,28709,2091
3635,7495,21893,28692,2032
3636,7495,21889,28681,1933
3637,7495,21884,28672,1863
3638,7495,21885,28665,1766
3639,7495,21879,28664,1757
3640,4192,21881,28660,1696
3641,4192,21884,28664,1708
3642,4192,21885,28662,1673
3643,4192,21889,28666,1684
3644,4192,21886,28671,1634
3645,4192,21888,28677,1668
3646,4192,21886,28675,1645
3647,4192,21890,28682,1673
3648,4192,21893,28686,1618
3649,4192,21894,28690,1727
3650,4192,21898,28698,1777
3651,4192,21897,28700,1904
3652,4192,21901,28711,1957
3653,-30141,21904,28715,1982
3654,-30141,21906,28728,2039
3655,-30141,21909,28736,2128
3656,-30141,21911,28742,2153
3657,-30141,21910,28750,2192
3658,-30141,21915,28750,2224
3659,-30141,21915,28756,2256
3660,-29239,21912,28759,2304
3661,-29239,21916,28761,2329
3662,-29239,21921,28761,2361
3663,-29239,21920,28763,2384
3664,-29239,21920,28764,2414
3665,-29239,21919,28768,2416
3666,-29239,21922,28766,2418
3667,-29239,21922,28764,2416
3668,-29239,21920,28767,2463
3669,-29239,21919,28766,2471
3670,-29239,21922,28766,2432
3671,-29239,21921,28769,2383
3672,29964,21918,28771,2349
3673,29964,21920,28773,2346
3674,29964,21921,28776,2334
3675,29964,21917,28777,2320
3676,29964,21916,28781,2302
3677,29964,21920,28784,2304
3678,29964,21919,28782,2318
3679,-19157,21919,28782,2309
3680,-19157,21920,28784,2306
3681,-19157,21916,28784,2261
3682,-19157,21918,28790,2272
3683,-19157,21921,28796,2293
3684,-19157,21920,28798,2903
3685,-19157,21923,28794,4095
3686,-19157,21904,28715,3183
3687,-19157,21918,28796,2173
3688,-19157,21917,28801,1856
3689,-19157,21914,28794,1837
3690,-19157,21915,28791,1787
3691,-19157,21915,28795,1723
3692,24435,21916,28799,1664
3693,24435,21913,28802,1631
3694,24435,21914,28804,1599
3695,24435,21913,28802,1563
3696,24435,21907,28797,1511
3697,24435,21912,28796,1456
3698,-8308,21914,28800,1399
3699,-8308,21915,28804,1373
3700,-8308,21915,28802,1351
3701,-8308,21916,28803,1307
3702,-8308,21910,28809,1303
3703,-8308,21913,28812,1293
3704,-8308,21917,28810,1295
3705,-8308,21918,28813,1286
3706,-8308,21919,28807,1284
3707,-8308,21918,28799,1296
3708,-8308,21918,28780,1330
3709,-8308,21907,28757,1345
3710,-8308,21901,28736,1346
3711,-4780,21897,28716,1328
3712,-4780,21888,28703,1296
3713,-4780,21892,28690,1279
3714,-4780,21887,28684,1241
3715,-4780,21883,28680,1232
3716,-4780,21889,28674,1279
3717,26148,21888,28677,1296
3718,26148,21885,28676,1349
3719,26148,21890,28684,1416
3720,26148,21892,28688,1488
3721,26148,21890,28691,1566
3722,26148,21896,28693,1630
3723,26148,21894,28697,1681
3724,26148,21895,28699,1761
3725,26148,21897,28706,1781
3726,26148,21899,28705,1831
3727,26148,21898,28712,1872
3728,26148,21902,28715,1886
3729,26148,21901,28721,1895
3730,-22369,21902,28724,1930
3731,-22369,21904,28735,1965
3732,-22369,21908,28744,2006
3733,-22369,21909,28746,2033
3734,-22369,21913,28756,2064
3735,-22369,21910,28760,2083
3736,25053,21918,28765,2128
3737,25053,21915,28767,2155
3738,25053,21917,28773,2175
3739,25053,21921,28780,2206
3740,25053,21919,28784,2204
3741,25053,21920,28785,2214
3742,25053,21920,28783,2212
3743,25053,21918,28785,2209
3744,25053,21921,28787,2208
3745,25053,21924,28788,2192
3746,25053,21923,28792,2160
3747,25053,21926,28792,2154
3748,25053,21923,28786,2176
3749,5274,21919,28786,2158
3750,5274,21917,28787,2165
3751,5274,21918,28788,2176
3752,5274,21915,28786,2237
3753,5274,21916,28790,2231
3754,5274,21915,28793,2221
3755,5274,21917,28795,2229
3756,7280,21917,28795,2223
3757,7280,21915,28801,2222
3758,7280,21917,28803,2234
3759,7280,21917,28803,2235
3760,7280,21916,28805,2256
3761,7280,21918,28804,2253
3762,7280,21917,28805,2287
3763,7280,21915,28805,2306
3764,7280,21916,28807,2320
3765,7280,21914,28809,2317
3766,7280,21915,28809,2366
3767,7280,21913,28810,2439
3768,-22346,21915,28814,3347
3769,-22346,21912,28814,4095
3770,-22346,21914,28817,3757
3771,-22346,21920,28821,2459
3772,-22346,21919,28823,2288
3773,-22346,21915,28823,2338
3774,-22346,21917,28826,2315
3775,-26556,21922,28824,2322
3776,-26556,21920,28825,2341
3777,-26556,21920,28829,2333
3778,-26556,21923,28832,2324
3779,-26556,21921,28833,2329
3780,-26556,21922,28834,2338
3781,-26556,21924,28836,2370
3782,-26556,21922,28837,2399
3783,-26556,21926,28841,2427
3784,-26556,21926,28843,2439
3785,-26556,21927,28845,2449
3786,-26556,21926,28849,2451
3787,-26556,21929,28848,2466
3788,-23172,21929,28843,2498
3789,-23172,21928,28842,2494
3790,-23172,21926,28832,2502
3791,-23172,21923,28817,2546
3792,-23172,21918,28792,2524
3793,-23172,21909,28769,2507
3794,-12620,21905,28750,2487
3795,-12620,21899,28727,2461
3796,-12620,21894,28713,2397
3797,-12620,21893,28702,2304
3798,-12620,21888,28697,2257
3799,-12620,21886,28688,2206
3800,-12620,21883,28690,2181
3801,-12620,21885,28686,2184
3802,-12620,21885,28688,2161
3803,-12620,21883,28692,2177
3804,-12620,21883,28695,2227
3805,-12620,21886,28698,2192
3806,-12620,21884,28697,2218
3807,7303,21882,28701,2259
3808,7303,21887,28705,2248
3809,7303,21889,28702,2234
3810,7303,21888,28702,2227
3811,7303,21889,28704,2198
3812,7303,21888,28710,2173
3813,9860,21894,28715,2161
3814,9860,21894,28720,2135
3815,9860,21892,28723,2139
3816,9860,21895,28733,2186
3817,9860,21898,28739,2225
3818,9860,21901,28742,2225
3819,9860,21899,28744,2231
3820,9860,21897,28751,2247
3821,9860,21900,28751,2237
3822,9860,21899,28755,2234
3823,9860,21899,28756,2240
3824,9860,21899,28753,2237
3825,9860,21895,28754,2243
3826,8715,21895,28751,2230
3827,8715,21892,28750,2229
3828,8715,21893,28751,2211
3829,8715,21893,28751,2215
3830,8715,21890,28751,2247
3831,8715,21893,28750,2277
3832,881,21890,28749,2334
3833,881,21893,28750,2320
3834,881,21889,28752,2283
3835,881,21890,28756,2256
3836,881,21895,28758,2255
3837,881,21883,28695,2229
3838,881,21890,28756,2192
3839,881,21891,28760,2137
3840,881,21891,28767,2144
3841,881,21891,28766,2110
3842,881,21893,28772,2103
3843,881,21896,28774,2128
3844,881,21890,28775,2075
3845,3208,21887,28776,2080
3846,3208,21890,28780,2173
3847,3208,21891,28778,2589
3848,3208,21891,28779,3820
3849,3208,21892,28782,2973
3850,3208,21893,28783,2254
3851,3208,21893,28780,1910
3852,2127,21890,28784,1891
3853,2127,21892,28780,1901
3854,2127,21891,28783,1808
3855,2127,21894,28784,1869
3856,2127,21892,28788,1795
3857,2127,21897,28785,1883
3858,2127,21893,28783,1879
3859,2127,21895,28785,1934
3860,2127,21893,28787,1932
3861,2127,21892,28788,1923
3862,2127,21891,28794,1924
3863,2127,21891,28793,1927
3864,3671,21891,28795,1904
3865,3671,21892,28792,1920
3866,3671,21892,28791,1934
3867,3671,21889,28787,1930
3868,3671,21887,28788,1936
3869,3671,21885,28781,1968
3870,3671,21879,28770,1997
3871,9250,21874,28757,2005
3872,9250,21872,28735,1995
3873,9250,21867,28709,1984
3874,9250,21859,28687,1970
3875,9250,21857,28672,1905
3876,9250,21854,28659,1797
3877,9250,21851,28652,1697
3878,9250,21847,28643,1625
3879,9250,21847,28640,1616
3880,9250,21844,28642,1577
3881,9250,21847,28643,1586
3882,9250,21847,28646,1533
3883,9250,21842,28646,1559
3884,-2768,21844,28647,1535
3885,-2768,21847,28650,1561
3886,-2768,21842,28649,1597
3887,-2768,21842,28653,1617
3888,-2768,21845,28652,1645
3889,-2768,21844,28656,1630
3890,-14322,21841,28658,1629
3891,-14322,21843,28659,1646
3892,-14322,21844,28659,1626
3893,-14322,21844,28664,1638
3894,-14322,21844,28671,1630
3895,-14322,21845,28675,1592
3896,-14322,21844,28681,1585
3897,-14322,21845,28686,1600
3898,-14322,21848,28696,1581
3899,-14322,21848,28698,1535
3900,-14322,21849,28703,1535
3901,-14322,21848,28700,1535
3902,-14322,21852,28702,1553
3903,1451,21850,28702,1554
3904,1451,21847,28702,1552
3905,1451,21846,28700,1535
3906,1451,21847,28697,1535
3907,1451,21847,28698,1593
3908,1451,21842,28696,1568
3909,26317,21843,28697,1521
3910,26317,21842,28696,1488
3911,26317,21840,28695,1475
3912,26317,21836,28686,1454
3913,26317,21835,28688,1444
3914,26317,21833,28689,1435
3915,26317,21830,28691,1383
3916,26317,21837,28696,1377
3917,26317,21837,28701,1360
3918,26317,21836,28707,1328
3919,26317,21838,28715,1302
3920,26317,21841,28718,1232
3921,26317,21843,28725,1249
3922,-11071,21849,28724,1286
3923,-11071,21849,28732,2303
3924,-11071,21847,28729,2738
3925,-11071,21848,28730,1767
3926,-11071,21851,28733,1154
3927,-11071,21850,28730,905
3928,3245,21850,28733,901
3929,3245,21850,28735,863
3930,3245,21850,28733,885
3931,3245,21847,28735,917
3932,3245,21851,28735,960
3933,3245,21851,28735,973
3934,3245,21850,28735,970
3935,3245,21854,28738,994
3936,3245,21854,28745,1043
3937,3245,21854,28744,1072
3938,3245,21854,28750,997
3939,3245,21853,28749,1132
3940,3245,21851,28756,1177
3941,4283,21858,28756,1201
3942,4283,21855,28752,1128
3943,4283,21857,28751,1263
3944,4283,21850,28747,1290
3945,4283,21849,28731,1380
3946,4283,21843,28721,1395
3947,4283,21842,28704,1506
3948,14446,21838,28681,1426
3949,14446,21830,28660,1501
3950,14446,21826,28645,1445
3951,14446,21822,28630,1381
3952,14446,21820,28621,1303
3953,14446,21816,28620,1245
3954,14446,21815,28618,1185
3955,14446,21817,28618,1143
3956,14446,21818,28621,1141
3957,14446,21822,28628,1093
3958,14446,21822,28632,1091
3959,14446,21825,28639,1050
3960,18914,21829,28643,1063
3961,18914,21828,28643,1042
3962,18914,21830,28648,1047
3963,18914,21834,28649,1044
3964,18914,21832,28655,1021
3965,18914,21831,28657,1017
3966,18914,21835,28657,1023
3967,-19029,21841,28667,1054
3968,-19029,21839,28671,1077
3969,-19029,21844,28678,1088
3970,-19029,21844,28685,1104
3971,-19029,21851,28695,1126
3972,-19029,21850,28701,1144
3973,-19029,21854,28706,1159
3974,-19029,21854,28712,1194
3975,-19029,21852,28719,1232
3976,-19029,21851,28720,1245
3977,-19029,21852,28721,1250
3978,-19029,21850,28719,1255
3979,-19029,21852,28718,1254
3980,-15838,21852,28718,1285
3981,-15838,21847,28715,1341
3982,-15838,21850,28720,1381
3983,-15838,21845,28717,1394
3984,-15838,21846,28722,1424
3985,-15838,21845,28724,1424
3986,-9986,21848,28724,1436
3987,-9986,21815,28618,1447
3988,-9986,21848,28729,1472
3989,-9986,21851,28729,1470
3990,-9986,21852,28736,1457
3991,-9986,21853,28738,1488
3992,-9986,21854,28743,1499
3993,-9986,21857,28747,1492
3994,-9986,21854,28754,1471
3995,-9986,21860,28757,1426
3996,-9986,21858,28758,1446
3997,-9986,21862,28763,1422
3998,-9986,21862,28766,1408
3999,-4931,21862,28762,1398
4000,-4931,21862,28770,1377
4001,-4931,21862,28769,1332
4002,-4931,21863,28769,1322
4003,-4931,21862,28771,1329
4004,-4931,21862,28773,1283
4005,-16864,21862,28773,1327
4006,-16864,21860,28770,1403
4007,-16864,21860,28770,2418
4008,-16864,21859,28770,3151
4009,-16864,21861,28774,2025
4010,-16864,21861,28773,1335
4011,-16864,21859,28774,1154
4012,-16864,21863,28776,1226
4013,-16864,21858,28778,1195
4014,-16864,21860,28776,1210
4015,-16864,21862,28777,1216
4016,-16864,21859,28781,1230
4017,-16864,21859,28779,1213
4018,-20319,21862,28779,1247
4019,-20319,21860,28779,1267
4020,-20319,21860,28782,1296
4021,-20319,21860,28784,1269
4022,-20319,21862,28790,1315
4023,-20319,21860,28786,1315
4024,-26938,21858,28789,1325
4025,-26938,21859,28794,1358
4026,-26938,21862,28793,1392
4027,-26938,21861,28793,1424
4028,-26938,21861,28793,1467
4029,-26938,21862,28782,1502
4030,-26938,21857,28769,1569
4031,-26938,21850,28754,1601
4032,-26938,21847,28731,1603
4033,-26938,21839,28707,1596
4034,-26938,21838,28687,1583
4035,-26938,21836,28671,1532
4036,-26938,21829,28657,1507
4037,-12687,21829,28651,1427
4038,-12687,21829,28651,1344
4039,-12687,21828,28648,1323
4040,-12687,21827,28652,1285
4041,-12687,21830,28652,1294
4042,-12687,21832,28652,1273
4043,-12687,21834,28654,1326
4044,-8459,21832,28658,1319
4045,-8459,21832,28664,1331
4046,-8459,21833,28657,1350
4047,-8459,21831,28660,1385
4048,-8459,21835,28665,1401
4049,-8459,21833,28663,1418
4050,-8459,21832,28663,1472
4051,-8459,21831,28662,1442
4052,-8459,21831,28668,1499
4053,-8459,21832,28668,1535
4054,-8459,21828,28676,1613
4055,-8459,21833,28681,1659
4056,-7600,21833,28682,1759
4057,-7600,21834,28690,1845
4058,-7600,21834,28696,1904
4059,-7600,21833,28701,1926
4060,-7600,21836,28704,1958
4061,-7600,21830,28704,2001
4062,-7600,21835,28709,2034
4063,-291,21833,28711,2084
4064,-291,21833,28710,2058
4065,-291,21833,28708,2032
4066,-291,21833,28713,2089
4067,-291,21833,28710,2081
4068,-291,21829,28710,2081
4069,-291,21827,28712,2131
4070,-291,21829,28715,2139
4071,-291,21831,28712,2097
4072,-291,21827,28716,2055
4073,-291,21828,28715,2032
4074,-291,21831,28717,2046
4075,-291,21831,28721,2023
4076,5280,21832,28718,2017
4077,5280,21828,28716,1984
4078,5280,21826,28725,2004
4079,5280,21828,28723,2001
4080,5280,21831,28728,2005
4081,5280,21831,28731,1963
4082,11986,21831,28737,1920
4083,11986,21839,28739,2070
4084,11986,21834,28741,2288
4085,11986,21835,28741,3664
4086,11986,21838,28743,3181
4087,11986,21838,28747,2329
4088,11986,21835,28747,1945
4089,11986,21835,28747,1824
4090,11986,21837,28748,1841
4091,11986,21836,28750,1831
4092,11986,21829,28749,1811
4093,11986,21833,28747,1807
4094,11986,21835,28750,1830
4095,11370,21833,28752,1821
4096,11370,21835,28756,1808
4097,11370,21835,28753,1821
4098,11370,21835,28757,1839
4099,11370,21833,28757,1840
4100,11370,21832,28758,1855
4101,12598,21833,28757,1855
4102,12598,21834,28756,1838
4103,12598,21835,28762,1838
4104,12598,21832,28762,1872
4105,12598,21832,28762,1901
4106,12598,21832,28753,1969
4107,12598,21825,28745,1991
4108,12598,21824,28731,2013
4109,12598,21818,28707,1998
4110,12598,21813,28687,1985
4111,12598,21813,28666,1989
4112,12598,21807,28647,1936
4113,12598,21805,28634,1840
4114,11975,21803,28629,1760
4115,11975,21799,28624,1706
4116,11975,21795,28619,1687
4117,11975,21799,28625,1679
4118,11975,21801,28626,1680
4119,11975,21804,28628,1662
4120,2594,21804,28632,1659
4121,2594,21807,28637,1659
4122,2594,21808,28640,1456
4123,2594,21806,28641,1666
4124,2594,21807,28647,1648
4125,2594,21807,28650,1647
4126,2594,21812,28654,1653
4127,2594,21812,28660,1615
4128,2594,21814,28665,1599
4129,2594,21815,28671,1589
4130,2594,21815,28671,1559
4131,2594,21819,28676,1564
4132,2594,21819,28681,1579
4133,-24047,21823,28689,1600
4134,-24047,21824,28696,1610
4135,-24047,21824,28698,1616
4136,-24047,21826,28705,1615
4137,-24047,21826,28709,1581
4138,-24047,21832,28762,1535
4139,-24047,21827,28717,1523
4140,7406,21826,28719,1489
4141,7406,21828,28716,1455
4142,7406,21824,28719,1411
4143,7406,21825,28720,1431
4144,7406,21821,28715,1373
4145,7406,21819,28717,1392
4146,7406,21817,28716,1407
4147,7406,21818,28715,1408
4148,7406,21816,28714,1326
4149,7406,21815,28715,1325
4150,7406,21818,28717,1259
4151,7406,21815,28722,1275
4152,12463,21819,28719,1228
4153,12463,21819,28726,1197
4154,12463,21820,28732,1191
4155,12463,21824,28734,1189
4156,12463,21828,28740,1174
4157,12463,21828,28745,1194
4158,12463,21829,28746,1189
4159,-41,21830,28751,1196
4160,-41,21830,28751,1330
4161,-41,21833,28756,1589
4162,-41,21835,28759,2928
4163,-41,21835,28760,2484
4164,-41,21833,28761,1495
4165,-41,21831,28762,1088
4166,-41,21832,28763,1053
4167,-41,21830,28762,1067
4168,-41,21829,28762,1033
4169,-41,21827,28759,1077
4170,-41,21829,28765,1128
4171,-41,21828,28764,1152
4172,21723,21828,28760,1175
4173,21723,21825,28765,1186
4174,21723,21826,28769,1195
4175,21723,21825,28767,1203
4176,21723,21825,28770,1255
4177,21723,21825,28771,1264
4178,10515,21829,28772,1293
4179,10515,21828,28769,1270
4180,10515,21828,28781,1312
4181,10515,21830,28778,1333
4182,10515,21832,28784,1367
4183,10515,21826,28776,1391
4184,10515,21830,28771,1441
4185,10515,21827,28752,1474
4186,10515,21822,28730,1499
4187,10515,21816,28702,1503
4188,10515,21812,28680,1523
4189,10515,21803,28662,1489
4190,10515,21801,28646,1406
4191,-32505,21798,28636,1327
4192,-32505,21798,28630,1217
4193,-32505,21797,28630,1141
4194,-32505,21796,28633,1095
4195,-32505,21800,28634,1067
4196,-32505,21798,28638,1043
4197,29156,21803,28634,1012
4198,29156,21803,28643,991
4199,29156,21802,28646,973
4200,29156,21803,28644,944
4201,29156,21804,28650,990
4202,29156,21806,28654,944
4203,29156,21803,28656,987
4204,29156,21806,28658,982
4205,29156,21808,28658,994
4206,29156,21806,28662,932
4207,29156,21806,28665,966
4208,29156,21809,28665,954
4209,29156,21811,28672,979
4210,21683,21812,28680,944
4211,21683,21815,28686,1012
4212,21683,21816,28696,999
4213,21683,21816,28705,976
4214,21683,21820,28708,973
4215,21683,21817,28713,1013
4216,-13648,21819,28718,1035
4217,-13648,21821,28718,1043
4218,-13648,21821,28722,1065
4219,-13648,21819,28721,1088
4220,-13648,21812,28719,1101
4221,-13648,21814,28718,1126
4222,-13648,21817,28720,1152
4223,-13648,21812,28723,1185
4224,-13648,21814,28722,1202
4225,-13648,21813,28716,1232
4226,-13648,21814,28721,1274
4227,-13648,21816,28723,1296
4228,-13648,21813,28724,1351
4229,-12391,21811,28726,1387
4230,-12391,21815,28729,1424
4231,-12391,21816,28735,1413
4232,-12391,21820,28739,1374
4233,-12391,21822,28743,1372
4234,-12391,21823,28747,1370
4235,-12391,21822,28749,1367
4236,5949,21824,28752,1363
4237,5949,21824,28756,1374
4238,5949,21820,28756,1294
4239,5949,21822,28757,1365
4240,5949,21818,28757,1318
4241,5949,21821,28761,1359
4242,5949,21822,28764,1313
4243,5949,21820,28763,1456
4244,5949,21822,28768,2016
4245,5949,21824,28768,3367
4246,5949,21822,28766,2531
4247,5949,21819,28770,1631
4248,-12795,21820,28770,1270
4249,-12795,21817,28769,1363
4250,-12795,21818,28769,1371
4251,-12795,21816,28770,1370
4252,-12795,21818,28769,1424
4253,-12795,21817,28767,1459
4254,-12795,21819,28769,1462
4255,31362,21819,28772,1535
4256,31362,21816,28775,1584
4257,31362,21817,28776,1617
4258,31362,21817,28778,1651
4259,31362,21820,28782,1689
4260,31362,21821,28787,1701
4261,31362,21822,28784,1723
4262,31362,21821,28784,1760
4263,31362,21822,28788,1803
4264,31362,21825,28786,1833
4265,31362,21821,28779,1899
4266,31362,21816,28766,1924
4267,31362,21810,28753,1980
4268,-25126,21806,28726,2000
4269,-25126,21804,28697,2004
4270,-25126,21798,28677,2011
4271,-25126,21797,28655,2005
4272,-25126,21794,28641,1957
4273,-25126,21790,28625,1894
4274,-9872,21780,28620,1833
4275,-9872,21779,28614,1803
4276,-9872,21779,28614,1815
4277,-9872,21777,28619,1808
4278,-9872,21780,28619,1835
4279,-9872,21785,28626,1831
4280,-9872,21785,28626,1821
4281,-9872,21785,28632,1781
4282,-9872,21785,28632,1827
4283,-9872,21781,28630,1853
4284,-9872,21780,28625,1877
4285,-9872,21779,28625,1925
4286,-9872,21777,28623,1923
4287,3894,21777,28626,1963
4288,3894,21819,28772,1983
4289,3894,21781,28630,2000
4290,3894,21783,28634,2010
4291,3894,21781,28636,2043
4292,3894,21782,28640,2069
4293,20438,21779,28647,2087
4294,20438,21780,28655,2097
4295,20438,21781,28662,2113
4296,20438,21784,28666,2099
4297,20438,21787,28675,2082
4298,20438,21785,28676,2096
4299,20438,21786,28677,2099
4300,20438,21789,28678,2146
4301,20438,21787,28681,2157
4302,20438,21787,28681,2145
4303,20438,21787,28678,2160
4304,20438,21789,28680,2160
4305,20438,21788,28680,2175
4306,16130,21788,28679,2192
4307,16130,21788,28680,2242
4308,16130,21788,28680,2276
4309,16130,21787,28679,2270
4310,16130,21785,28683,2271
4311,16130,21783,28685,2256
4312,8494,21779,28687,2271
4313,8494,21781,28686,2265
4314,8494,21777,28684,2267
4315,8494,21777,28685,2298
4316,8494,21775,28689,2320
4317,8494,21777,28691,2283
4318,8494,21778,28691,2288
4319,8494,21781,28697,2299
4320,8494,21781,28698,2227
4321,8494,21778,28701,2275
4322,8494,21778,28701,2352
4323,8494,21778,28702,3054
4324,8494,21776,28700,4095
4325,-2567,21774,28703,3066
4326,-2567,21772,28702,2352
4327,-2567,21772,28700,2125
4328,-2567,21774,28697,2125
4329,-2567,21773,28704,2112
4330,-2567,21771,28704,2126
4331,-2567,21769,28702,2135
4332,-3953,21769,28704,2151
4333,-3953,21772,28708,2138
4334,-3953,21771,28711,2195
4335,-3953,21772,28710,2171
4336,-3953,21774,28714,2157
4337,-3953,21771,28714,2151
4338,-3953,21773,28718,2156
4339,-3953,21776,28717,2182
4340,-3953,21770,28715,2179
4341,-3953,21769,28715,2171
4342,-3953,21769,28715,2178
4343,-3953,21770,28712,2192
4344,-1000,21768,28711,2205
4345,-1000,21766,28700,2250
4346,-1000,21763,28687,2285
4347,-1000,21760,28673,2307
4348,-1000,21757,28649,2313
4349,-1000,21751,28622,2273
4350,-1000,21746,28602,2227
4351,-2354,21741,28582,2157
4352,-2354,21735,28571,2047
4353,-2354,21732,28566,1968
4354,-2354,21738,28561,1919
4355,-2354,21733,28556,1888
4356,-2354,21734,28560,1843
4357,-2354,21735,28562,1803
4358,-2354,21738,28561,1749
4359,-2354,21735,28566,1710
4360,-2354,21736,28569,1695
4361,-2354,21738,28576,1660
4362,-2354,21741,28580,1637
4363,-2354,21742,28581,1609
4364,-17039,21744,28585,1589
4365,-17039,21745,28587,1599
4366,-17039,21747,28592,1609
4367,-17039,21748,28596,1584
4368,-17039,21750,28605,1589
4369,-17039,21750,28609,1597
4370,-5582,21751,28615,1600
4371,-5582,21757,28626,1599
4372,-5582,21757,28635,1603
4373,-5582,21761,28641,1602
4374,-5582,21760,28644,1607
4375,-5582,21754,28645,1600
4376,-5582,21756,28649,1589
4377,-5582,21760,28650,1616
4378,-5582,21757,28646,1625
4379,-5582,21757,28648,1613
4380,-5582,21754,28648,1611
4381,-5582,21756,28649,1605
4382,-5582,21756,28649,1600
4383,30918,21754,28649,1603
4384,30918,21756,28653,1623
4385,30918,21759,28657,1644
